34341_012_PSS_HM_XX
Date/Time: 6/29/2021 1:43:22 PM
Sensor Name: 34341_012_PSS_HM_XX
Type: P
Annealing Status: Not Irradiated
Environment: RT
Tester: Eric Spencer
Notes: 

Time Delay per Ramp Step (s): 0.500

CV Time Delay per Measurement (s) :0.500

AC Voltage (V): 0.500

Current Number of measurements per voltage: 4.000

IV Time Delay per Measurement (s) :0.500


BiasVoltage	LCR_Cp_freq1000.0	LCR_G_freq1000.0	Temperature	Air_Temp	Humidity	Dewpoint	
   -5.0000	4.343E-10	3.541E-7	   23.5134	   22.2420	   42.4218	    0.0000	
  -10.0000	3.015E-10	1.115E-7	   23.5134	   22.2420	   42.4218	    0.0000	
  -15.0000	2.452E-10	7.205E-8	   23.5134	   22.2420	   42.4218	    0.0000	
  -20.0000	2.117E-10	4.747E-8	   23.5134	   22.2420	   42.4218	    0.0000	
  -25.0000	1.887E-10	5.312E-8	   23.5134	   22.2420	   42.4218	    0.0000	
  -30.0000	1.718E-10	4.196E-8	   23.5134	   22.2420	   42.4218	    0.0000	
  -35.0000	1.536E-10	5.415E-8	   23.5134	   22.2420	   42.4218	    0.0000	
  -40.0000	1.497E-10	3.435E-8	   23.5134	   22.2420	   42.4218	    0.0000	
  -45.0000	1.377E-10	3.750E-8	   23.5134	   22.2420	   42.4218	    0.0000	
  -50.0000	1.316E-10	3.469E-8	   23.5134	   22.2420	   42.4218	    0.0000	
  -55.0000	1.209E-10	7.685E-8	   23.5134	   22.2420	   42.4218	    0.0000	
  -60.0000	1.178E-10	2.664E-8	   23.5134	   22.2420	   42.4218	    0.0000	
  -65.0000	1.108E-10	4.105E-8	   23.5134	   22.2420	   42.4218	    0.0000	
  -70.0000	1.078E-10	3.317E-8	   23.5134	   22.2420	   42.4218	    0.0000	
  -75.0000	1.026E-10	2.554E-8	   23.5134	   22.2420	   42.4218	    0.0000	
  -80.0000	9.649E-11	3.513E-8	   23.5134	   22.2420	   42.4218	    0.0000	
  -85.0000	9.809E-11	2.416E-8	   23.5134	   22.2420	   42.4218	    0.0000	
  -90.0000	9.558E-11	3.315E-8	   23.5134	   22.2420	   42.4218	    0.0000	
  -95.0000	9.048E-11	1.130E-8	   23.5134	   22.2420	   42.4218	    0.0000	
 -100.0000	8.561E-11	3.778E-8	   23.5134	   22.2420	   42.4218	    0.0000	
 -105.0000	8.513E-11	2.790E-8	   23.5134	   22.2420	   42.4218	    0.0000	
 -110.0000	8.174E-11	2.937E-8	   23.5134	   22.2420	   42.4218	    0.0000	
 -115.0000	7.683E-11	2.860E-8	   23.5134	   22.2420	   42.4218	    0.0000	
 -120.0000	7.795E-11	3.872E-8	   23.5134	   22.2420	   42.4218	    0.0000	
 -125.0000	7.807E-11	3.355E-8	   23.5134	   22.2420	   42.4218	    0.0000	
 -130.0000	7.635E-11	2.849E-8	   23.5134	   22.2420	   42.4218	    0.0000	
 -135.0000	7.430E-11	2.328E-8	   23.5134	   22.2420	   42.4218	    0.0000	
 -140.0000	7.270E-11	2.616E-8	   23.5134	   22.2420	   42.4218	    0.0000	
 -145.0000	7.270E-11	5.086E-8	   23.5134	   22.2420	   42.4218	    0.0000	
 -150.0000	7.150E-11	1.955E-8	   23.5134	   22.2420	   42.4218	    0.0000	
 -155.0000	6.939E-11	2.513E-8	   23.5134	   22.2420	   42.4218	    0.0000	
 -160.0000	6.974E-11	2.754E-8	   23.5134	   22.2420	   42.4218	    0.0000	
 -165.0000	6.889E-11	2.898E-8	   23.5134	   22.2420	   42.4218	    0.0000	
 -170.0000	6.716E-11	2.147E-8	   23.5134	   22.2420	   42.4218	    0.0000	
 -175.0000	6.632E-11	3.852E-8	   23.5134	   22.2420	   42.4218	    0.0000	
 -180.0000	6.667E-11	3.192E-8	   23.5134	   22.2420	   42.4218	    0.0000	
 -185.0000	6.470E-11	2.392E-8	   23.5134	   22.2420	   42.4218	    0.0000	
 -190.0000	6.281E-11	2.704E-8	   23.5134	   22.2420	   42.4218	    0.0000	
 -195.0000	6.328E-11	2.738E-8	   23.5134	   22.2420	   42.4218	    0.0000	
 -200.0000	6.068E-11	4.679E-8	   23.5134	   22.2420	   42.4218	    0.0000	
 -205.0000	6.079E-11	2.718E-8	   23.5134	   22.2420	   42.4218	    0.0000	
 -210.0000	5.858E-11	3.246E-8	   23.5134	   22.2420	   42.4218	    0.0000	
 -215.0000	5.933E-11	1.928E-8	   23.5134	   22.2420	   42.4218	    0.0000	
 -220.0000	5.874E-11	2.403E-8	   23.5134	   22.2420	   42.4218	    0.0000	
 -225.0000	5.490E-11	2.319E-8	   23.5134	   22.2420	   42.4218	    0.0000	
 -230.0000	5.746E-11	4.424E-8	   23.5134	   22.2420	   42.4218	    0.0000	
 -235.0000	5.776E-11	1.739E-8	   23.5134	   22.2420	   42.4218	    0.0000	
 -240.0000	5.623E-11	3.534E-8	   23.5134	   22.2420	   42.4218	    0.0000	
 -245.0000	5.317E-11	3.176E-8	   23.5134	   22.2420	   42.4218	    0.0000	
 -250.0000	5.309E-11	5.051E-8	   23.5134	   22.2420	   42.4218	    0.0000	
 -255.0000	5.577E-11	2.249E-8	   23.5134	   22.2420	   42.4218	    0.0000	
 -260.0000	5.617E-11	2.873E-8	   23.5134	   22.2420	   42.4218	    0.0000	
 -265.0000	5.623E-11	2.553E-8	   23.5134	   22.2420	   42.4218	    0.0000	
 -270.0000	5.521E-11	1.725E-8	   23.5134	   22.2420	   42.4218	    0.0000	
 -275.0000	5.462E-11	2.760E-8	   23.5134	   22.2420	   42.4218	    0.0000	
 -280.0000	5.457E-11	2.905E-8	   23.5134	   22.2420	   42.4218	    0.0000	
 -285.0000	5.484E-11	1.805E-8	   23.5134	   22.2420	   42.4218	    0.0000	
 -290.0000	5.569E-11	1.914E-8	   23.5134	   22.2420	   42.4218	    0.0000	
 -295.0000	5.721E-11	5.236E-8	   23.5134	   22.2420	   42.4218	    0.0000	
 -300.0000	5.409E-11	3.594E-8	   23.5134	   22.2420	   42.4218	    0.0000	
 -305.0000	5.485E-11	1.478E-8	   23.5134	   22.2420	   42.4218	    0.0000	
 -310.0000	5.408E-11	2.306E-8	   23.5134	   22.2420	   42.4218	    0.0000	
 -315.0000	5.179E-11	1.241E-8	   23.5134	   22.2420	   42.4218	    0.0000	
 -320.0000	5.517E-11	2.068E-8	   23.5134	   22.2420	   42.4218	    0.0000	
 -325.0000	5.445E-11	2.427E-8	   23.5134	   22.2420	   42.4218	    0.0000	
 -330.0000	5.440E-11	3.332E-8	   23.5134	   22.2420	   42.4218	    0.0000	
 -335.0000	5.236E-11	2.009E-8	   23.5134	   22.2420	   42.4218	    0.0000	
 -340.0000	5.530E-11	2.641E-8	   23.5134	   22.2420	   42.4218	    0.0000	
 -345.0000	5.490E-11	2.823E-8	   23.5134	   22.2420	   42.4218	    0.0000	
 -350.0000	5.404E-11	2.377E-8	   23.5134	   22.2420	   42.4218	    0.0000	
 -355.0000	5.625E-11	1.613E-8	   23.5134	   22.2420	   42.4218	    0.0000	
 -360.0000	5.373E-11	2.976E-8	   23.5134	   22.2420	   42.4218	    0.0000	
 -365.0000	5.473E-11	4.462E-8	   23.5134	   22.2420	   42.4218	    0.0000	
 -370.0000	5.517E-11	1.451E-8	   23.5134	   22.2420	   42.4218	    0.0000	
 -375.0000	5.118E-11	5.664E-8	   23.5134	   22.2420	   42.4218	    0.0000	
 -380.0000	5.140E-11	2.990E-8	   23.5134	   22.2420	   42.4218	    0.0000	
 -385.0000	5.458E-11	1.989E-8	   23.5134	   22.2420	   42.4218	    0.0000	
 -390.0000	5.458E-11	2.403E-8	   23.5134	   22.2420	   42.4218	    0.0000	
 -395.0000	5.516E-11	2.095E-8	   23.5134	   22.2420	   42.4218	    0.0000	
 -400.0000	5.513E-11	1.770E-8	   23.5134	   22.2420	   42.4218	    0.0000	
 -410.0000	5.388E-11	-2.464E-9	   23.5134	   22.2420	   42.4218	    0.0000	
 -420.0000	5.340E-11	2.139E-8	   23.5134	   22.2420	   42.4218	    0.0000	
 -430.0000	5.492E-11	1.917E-8	   23.5134	   22.2420	   42.4218	    0.0000	
 -440.0000	5.640E-11	1.703E-8	   23.5134	   22.2420	   42.4218	    0.0000	
 -450.0000	5.499E-11	1.170E-8	   23.5134	   22.2420	   42.4218	    0.0000	
 -460.0000	5.595E-11	2.303E-8	   23.5134	   22.2420	   42.4218	    0.0000	
 -470.0000	5.486E-11	2.217E-8	   23.5134	   22.2420	   42.4218	    0.0000	
 -480.0000	5.499E-11	1.363E-8	   23.5134	   22.2420	   42.4218	    0.0000	
 -490.0000	5.101E-11	2.851E-8	   23.5134	   22.2420	   42.4218	    0.0000	
 -500.0000	5.545E-11	2.182E-8	   23.5134	   22.2420	   42.4218	    0.0000	
 -510.0000	5.043E-11	1.901E-8	   23.5134	   22.2420	   42.4218	    0.0000	
 -520.0000	5.489E-11	2.772E-8	   23.5134	   22.2420	   42.4218	    0.0000	
 -530.0000	5.575E-11	2.465E-8	   23.5134	   22.2420	   42.4218	    0.0000	
 -540.0000	5.495E-11	2.495E-8	   23.5134	   22.2420	   42.4218	    0.0000	
 -550.0000	5.625E-11	2.531E-8	   23.5134	   22.2420	   42.4218	    0.0000	
 -560.0000	5.533E-11	2.494E-8	   23.5134	   22.2420	   42.4218	    0.0000	
 -570.0000	5.508E-11	3.194E-8	   23.5134	   22.2420	   42.4218	    0.0000	
 -580.0000	5.429E-11	1.107E-8	   23.5134	   22.2420	   42.4218	    0.0000	
 -590.0000	5.752E-11	4.249E-8	   23.5134	   22.2420	   42.4218	    0.0000	
 -600.0000	5.349E-11	2.167E-8	   23.5134	   22.2420	   42.4218	    0.0000	
