34341_041_PSS_XX_HM_Irrad_20min
Date/Time: 8/12/2021 11:05:27 AM
Sensor Name: 34341_041_PSS_XX_HM_Irrad_20min
Type: P
Annealing Status: 20 min
Environment: 20C
Tester: Eric Spencer
Notes: Irradiated for 56 min at RINSC

Time Delay per Ramp Step (s): 1.000

CV Time Delay per Measurement (s) :0.500

AC Voltage (V): 0.500

Current Number of measurements per voltage: 4.000

IV Time Delay per Measurement (s) :0.500


BiasVoltage	LCR_Cp_freq1	LCR_G_freq1	Temperature	Air_Temp	Humidity	Dewpoint	
  -10.0000	1.538E-10	1.671E-6	  -20.0000	   24.2749	    2.1276	    0.0000	
  -20.0000	1.587E-10	1.360E-6	  -20.0000	   24.2749	    2.1276	    0.0000	
  -30.0000	1.565E-10	1.179E-6	  -20.0000	   24.2749	    2.1276	    0.0000	
  -40.0000	1.524E-10	1.046E-6	  -20.0000	   24.2749	    2.1276	    0.0000	
  -50.0000	1.476E-10	9.431E-7	  -20.0000	   24.2749	    2.1276	    0.0000	
  -60.0000	1.446E-10	8.591E-7	  -20.0000	   24.2749	    2.1276	    0.0000	
  -70.0000	1.409E-10	7.928E-7	  -20.0000	   24.2749	    2.1276	    0.0000	
  -80.0000	1.377E-10	7.397E-7	  -20.0000	   24.2749	    2.1276	    0.0000	
  -90.0000	1.335E-10	6.834E-7	  -20.0000	   24.2749	    2.1276	    0.0000	
 -100.0000	1.305E-10	6.575E-7	  -20.0000	   24.2749	    2.1276	    0.0000	
 -110.0000	1.261E-10	6.151E-7	  -20.0000	   24.2749	    2.1276	    0.0000	
 -120.0000	1.232E-10	5.881E-7	  -20.0000	   24.2749	    2.1276	    0.0000	
 -130.0000	1.202E-10	5.654E-7	  -20.0000	   24.2749	    2.1276	    0.0000	
 -140.0000	1.173E-10	5.341E-7	  -20.0000	   24.2749	    2.1276	    0.0000	
 -150.0000	1.171E-10	5.027E-7	  -20.0000	   24.2749	    2.1276	    0.0000	
 -160.0000	1.136E-10	4.929E-7	  -20.0000	   24.2749	    2.1276	    0.0000	
 -170.0000	1.124E-10	4.731E-7	  -20.0000	   24.2749	    2.1276	    0.0000	
 -180.0000	1.084E-10	4.463E-7	  -20.0000	   24.2749	    2.1276	    0.0000	
 -190.0000	1.089E-10	4.416E-7	  -20.0000	   24.2749	    2.1276	    0.0000	
 -200.0000	1.049E-10	4.248E-7	  -20.0000	   24.2749	    2.1276	    0.0000	
 -210.0000	1.027E-10	4.134E-7	  -20.0000	   24.2749	    2.1276	    0.0000	
 -220.0000	1.036E-10	4.046E-7	  -20.0000	   24.2749	    2.1276	    0.0000	
 -230.0000	9.948E-11	3.822E-7	  -20.0000	   24.2749	    2.1276	    0.0000	
 -240.0000	9.796E-11	3.760E-7	  -20.0000	   24.2749	    2.1276	    0.0000	
 -250.0000	9.540E-11	3.888E-7	  -20.0000	   24.2749	    2.1276	    0.0000	
 -260.0000	9.494E-11	3.501E-7	  -20.0000	   24.2749	    2.1276	    0.0000	
 -270.0000	9.369E-11	3.492E-7	  -20.0000	   24.2749	    2.1276	    0.0000	
 -280.0000	9.239E-11	3.431E-7	  -20.0000	   24.2749	    2.1276	    0.0000	
 -290.0000	8.922E-11	3.241E-7	  -20.0000	   24.2749	    2.1276	    0.0000	
 -300.0000	8.874E-11	3.211E-7	  -20.0000	   24.2749	    2.1276	    0.0000	
 -310.0000	8.728E-11	2.998E-7	  -20.0000	   24.2749	    2.1276	    0.0000	
 -320.0000	8.785E-11	3.298E-7	  -20.0000	   24.2749	    2.1276	    0.0000	
 -330.0000	8.297E-11	3.101E-7	  -20.0000	   24.2749	    2.1276	    0.0000	
 -340.0000	8.256E-11	2.730E-7	  -20.0000	   24.2749	    2.1276	    0.0000	
 -350.0000	8.279E-11	2.789E-7	  -20.0000	   24.2749	    2.1276	    0.0000	
 -360.0000	8.508E-11	2.662E-7	  -20.0000	   24.2749	    2.1276	    0.0000	
 -370.0000	8.113E-11	2.632E-7	  -20.0000	   24.2749	    2.1276	    0.0000	
 -380.0000	7.847E-11	2.481E-7	  -20.0000	   24.2749	    2.1276	    0.0000	
 -390.0000	7.792E-11	2.339E-7	  -20.0000	   24.2749	    2.1276	    0.0000	
 -400.0000	7.676E-11	2.343E-7	  -20.0000	   24.2749	    2.1276	    0.0000	
 -410.0000	7.537E-11	2.252E-7	  -20.0000	   24.2749	    2.1276	    0.0000	
 -420.0000	7.420E-11	2.145E-7	  -20.0000	   24.2749	    2.1276	    0.0000	
 -430.0000	7.491E-11	2.186E-7	  -20.0000	   24.2749	    2.1276	    0.0000	
 -440.0000	7.010E-11	2.229E-7	  -20.0000	   24.2749	    2.1276	    0.0000	
 -450.0000	7.074E-11	1.989E-7	  -20.0000	   24.2749	    2.1276	    0.0000	
 -460.0000	6.870E-11	1.779E-7	  -20.0000	   24.2749	    2.1276	    0.0000	
 -470.0000	6.876E-11	1.799E-7	  -20.0000	   24.2749	    2.1276	    0.0000	
 -480.0000	6.404E-11	1.896E-7	  -20.0000	   24.2749	    2.1276	    0.0000	
 -490.0000	7.015E-11	1.777E-7	  -20.0000	   24.2749	    2.1276	    0.0000	
 -500.0000	6.437E-11	1.556E-7	  -20.0000	   24.2749	    2.1276	    0.0000	
 -510.0000	6.608E-11	1.681E-7	  -20.0000	   24.2749	    2.1276	    0.0000	
 -520.0000	6.431E-11	1.686E-7	  -20.0000	   24.2749	    2.1276	    0.0000	
 -530.0000	6.292E-11	1.613E-7	  -20.0000	   24.2749	    2.1276	    0.0000	
 -540.0000	6.215E-11	1.311E-7	  -20.0000	   24.2749	    2.1276	    0.0000	
 -550.0000	6.306E-11	1.490E-7	  -20.0000	   24.2749	    2.1276	    0.0000	
 -560.0000	5.953E-11	1.288E-7	  -20.0000	   24.2749	    2.1276	    0.0000	
 -570.0000	5.824E-11	1.024E-7	  -20.0000	   24.2749	    2.1276	    0.0000	
 -580.0000	5.918E-11	1.165E-7	  -20.0000	   24.2749	    2.1276	    0.0000	
 -590.0000	5.855E-11	1.342E-7	  -20.0000	   24.2749	    2.1276	    0.0000	
 -600.0000	5.746E-11	1.128E-7	  -20.0000	   24.2749	    2.1276	    0.0000	
 -610.0000	5.654E-11	9.075E-8	  -20.0000	   24.2749	    2.1276	    0.0000	
 -620.0000	5.451E-11	1.231E-7	  -20.0000	   24.2749	    2.1276	    0.0000	
 -630.0000	5.445E-11	1.007E-7	  -20.0000	   24.2749	    2.1276	    0.0000	
 -640.0000	5.512E-11	7.973E-8	  -20.0000	   24.2749	    2.1276	    0.0000	
 -650.0000	6.041E-11	7.934E-8	  -20.0000	   24.2749	    2.1276	    0.0000	
 -660.0000	5.448E-11	7.841E-8	  -20.0000	   24.2749	    2.1276	    0.0000	
 -670.0000	5.661E-11	9.254E-8	  -20.0000	   24.2749	    2.1276	    0.0000	
 -680.0000	5.450E-11	1.032E-7	  -20.0000	   24.2749	    2.1276	    0.0000	
 -690.0000	5.288E-11	9.345E-8	  -20.0000	   24.2749	    2.1276	    0.0000	
 -700.0000	5.744E-11	7.935E-8	  -20.0000	   24.2749	    2.1276	    0.0000	
 -710.0000	5.763E-11	6.824E-8	  -20.0000	   24.2749	    2.1276	    0.0000	
 -720.0000	5.277E-11	7.382E-8	  -20.0000	   24.2749	    2.1276	    0.0000	
 -730.0000	5.173E-11	7.076E-8	  -20.0000	   24.2749	    2.1276	    0.0000	
 -740.0000	5.242E-11	7.712E-8	  -20.0000	   24.2749	    2.1276	    0.0000	
 -750.0000	5.250E-11	6.199E-8	  -20.0000	   24.2749	    2.1276	    0.0000	
 -760.0000	5.442E-11	6.271E-8	  -20.0000	   24.2749	    2.1276	    0.0000	
 -770.0000	5.125E-11	7.655E-8	  -20.0000	   24.2749	    2.1276	    0.0000	
 -780.0000	5.569E-11	4.742E-8	  -20.0000	   24.2749	    2.1276	    0.0000	
 -790.0000	5.387E-11	7.471E-8	  -20.0000	   24.2749	    2.1276	    0.0000	
 -800.0000	4.935E-11	6.743E-8	  -20.0000	   24.2749	    2.1276	    0.0000	
 -810.0000	5.423E-11	6.818E-8	  -20.0000	   24.2749	    2.1276	    0.0000	
 -820.0000	5.295E-11	5.005E-8	  -20.0000	   24.2749	    2.1276	    0.0000	
 -830.0000	5.589E-11	5.746E-8	  -20.0000	   24.2749	    2.1276	    0.0000	
 -840.0000	5.083E-11	6.770E-8	  -20.0000	   24.2749	    2.1276	    0.0000	
 -850.0000	5.571E-11	7.355E-8	  -20.0000	   24.2749	    2.1276	    0.0000	
 -860.0000	4.988E-11	4.939E-8	  -20.0000	   24.2749	    2.1276	    0.0000	
 -870.0000	5.000E-11	6.688E-8	  -20.0000	   24.2749	    2.1276	    0.0000	
 -880.0000	5.355E-11	7.439E-8	  -20.0000	   24.2749	    2.1276	    0.0000	
 -890.0000	5.509E-11	3.684E-8	  -20.0000	   24.2749	    2.1276	    0.0000	
 -900.0000	5.285E-11	6.139E-8	  -20.0000	   24.2749	    2.1276	    0.0000	
 -910.0000	5.382E-11	6.406E-8	  -20.0000	   24.2749	    2.1276	    0.0000	
 -920.0000	5.212E-11	6.235E-8	  -20.0000	   24.2749	    2.1276	    0.0000	
 -930.0000	5.358E-11	7.183E-8	  -20.0000	   24.2749	    2.1276	    0.0000	
 -940.0000	5.545E-11	5.667E-8	  -20.0000	   24.2749	    2.1276	    0.0000	
 -950.0000	5.432E-11	6.941E-8	  -20.0000	   24.2749	    2.1276	    0.0000	
 -960.0000	5.415E-11	8.383E-8	  -20.0000	   24.2749	    2.1276	    0.0000	
 -970.0000	4.769E-11	6.228E-8	  -20.0000	   24.2749	    2.1276	    0.0000	
 -980.0000	5.049E-11	8.971E-8	  -20.0000	   24.2749	    2.1276	    0.0000	
 -990.0000	4.947E-11	8.317E-8	  -20.0000	   24.2749	    2.1276	    0.0000	
-1000.0000	5.430E-11	6.451E-8	  -20.0000	   24.2749	    2.1276	    0.0000	
