GCD Test
Bias: 5000.000000
CV_36696_039_PSS_HM_XX_DIODEHALFPSTOP
Date/Time: 8/17/2021 4:12:56 PM
Sensor Name: 36696_039_PSS_HM_XX_DIODEHALFPSTOP
Type: P
Annealing Status: Unirrad
Environment: -20C
Tester: Eric Spencer

Time Delay per Ramp Step (s): 0.500

CV Time Delay per Measurement (s) :0.500

AC Voltage (V): 0.500

Current Number of measurements per voltage: 1.000

IV Time Delay per Measurement (s) :0.000


BiasVoltage	LCR_Cp_freq1000.0	LCR_Rp_freq1000.0	Temperature	Air_Temp	Humidity	Dewpoint
   -5.0000	2.244E-11	6.571E+8	   19.9653	   21.1833	    7.9769	  -14.3975	
  -10.0000	1.737E-11	9.549E+8	   20.0116	   21.1848	    7.9646	  -14.4152	
  -15.0000	1.502E-11	1.113E+9	   20.0553	   21.1876	    7.9545	  -14.4285	
  -20.0000	1.360E-11	1.257E+9	   20.0837	   21.1944	    7.9485	  -14.4326	
  -25.0000	1.264E-11	1.348E+9	   20.0939	   21.1917	    7.9431	  -14.4428	
  -30.0000	1.198E-11	1.346E+9	   20.0811	   21.1917	    7.9453	  -14.4394	
  -35.0000	1.144E-11	1.396E+9	   20.0605	   21.1931	    7.9450	  -14.4389	
  -40.0000	1.102E-11	1.437E+9	   20.0347	   21.1994	    7.9434	  -14.4367	
  -45.0000	1.068E-11	1.516E+9	   20.0064	   21.1920	    7.9513	  -14.4300	
  -50.0000	1.037E-11	1.545E+9	   19.9807	   21.1942	    7.9377	  -14.4492	
  -55.0000	1.012E-11	1.495E+9	   19.9575	   21.1960	    7.9447	  -14.4372	
  -60.0000	9.895E-12	1.622E+9	   19.9447	   21.1918	    7.9485	  -14.4346	
  -65.0000	9.698E-12	1.664E+9	   19.9369	   21.1908	    7.9541	  -14.4266	
  -70.0000	9.517E-12	1.485E+9	   19.9421	   21.1948	    7.9570	  -14.4193	
  -75.0000	9.352E-12	1.519E+9	   19.9550	   21.1829	    7.9690	  -14.4098	
  -80.0000	9.206E-12	1.680E+9	   19.9807	   21.1910	    7.9750	  -14.3946	
  -85.0000	9.058E-12	1.659E+9	   20.0064	   21.1833	    7.9693	  -14.4090	
  -90.0000	8.930E-12	1.703E+9	   20.0373	   21.1922	    7.9728	  -14.3971	
  -95.0000	8.818E-12	1.613E+9	   20.0631	   21.1833	    7.9779	  -14.3961	
 -100.0000	8.707E-12	1.610E+9	   20.0837	   21.1932	    7.9722	  -14.3973	
 -105.0000	8.611E-12	1.675E+9	   20.0939	   21.1876	    8.0006	  -14.3582	
 -110.0000	8.522E-12	1.662E+9	   20.0914	   21.1906	    8.0145	  -14.3349	
 -115.0000	8.430E-12	1.663E+9	   20.0914	   21.1906	    8.0145	  -14.3349	
 -120.0000	8.351E-12	1.659E+9	   20.0708	   21.1907	    8.0139	  -14.3357	
 -125.0000	8.269E-12	1.638E+9	   20.0450	   21.1961	    8.0000	  -14.3528	
 -130.0000	8.193E-12	1.710E+9	   19.9755	   21.1965	    7.9937	  -14.3622	
 -135.0000	8.126E-12	1.747E+9	   19.9550	   21.1894	    7.9820	  -14.3852	
 -140.0000	8.056E-12	1.589E+9	   19.9369	   21.1910	    7.9709	  -14.4009	
 -145.0000	7.995E-12	1.772E+9	   19.9318	   21.1937	    7.9719	  -14.3975	
 -150.0000	7.938E-12	1.900E+9	   19.9421	   21.1936	    7.9636	  -14.4101	
 -155.0000	7.888E-12	1.783E+9	   19.9601	   21.1880	    7.9576	  -14.4234	
 -160.0000	7.839E-12	1.976E+9	   19.9910	   21.1913	    7.9535	  -14.4272	
 -165.0000	7.791E-12	1.986E+9	   20.0270	   21.1925	    7.9526	  -14.4278	
 -170.0000	7.744E-12	1.860E+9	   20.0553	   21.1890	    7.9614	  -14.4168	
 -175.0000	7.697E-12	1.756E+9	   20.0837	   21.1849	    7.9557	  -14.4286	
 -180.0000	7.660E-12	1.936E+9	   20.0939	   21.1914	    7.9567	  -14.4223	
 -185.0000	7.615E-12	1.861E+9	   20.0965	   21.1902	    7.9655	  -14.4097	
 -190.0000	7.576E-12	1.848E+9	   20.0862	   21.1966	    7.9614	  -14.4112	
 -195.0000	7.544E-12	1.835E+9	   20.0656	   21.1893	    7.9503	  -14.4335	
 -200.0000	7.504E-12	1.948E+9	   20.0425	   21.1898	    7.9570	  -14.4230	
 -205.0000	7.471E-12	1.853E+9	   20.0142	   21.1903	    7.9421	  -14.4453	
 -210.0000	7.431E-12	1.825E+9	   19.9910	   21.1863	    7.9595	  -14.4218	
 -215.0000	7.405E-12	2.006E+9	   19.9653	   21.1907	    7.9693	  -14.4035	
 -220.0000	7.374E-12	2.018E+9	   19.9498	   21.1905	    7.9889	  -14.3738	
 -225.0000	7.342E-12	1.944E+9	   19.9447	   21.1905	    7.9693	  -14.4037	
 -230.0000	7.313E-12	1.843E+9	   19.9498	   21.1921	    7.9712	  -14.3996	
 -235.0000	7.283E-12	2.223E+9	   19.9653	   21.1881	    7.9817	  -14.3867	
 -240.0000	7.265E-12	2.187E+9	   19.9987	   21.1881	    7.9756	  -14.3958	
 -245.0000	7.231E-12	1.947E+9	   20.0296	   21.1919	    7.9753	  -14.3935	
 -250.0000	7.207E-12	2.070E+9	   20.0553	   21.1936	    7.9775	  -14.3889	
 -255.0000	7.177E-12	1.925E+9	   20.0759	   21.1864	    7.9870	  -14.3797	
 -260.0000	7.156E-12	2.041E+9	   20.0759	   21.1864	    7.9870	  -14.3797	
 -265.0000	7.131E-12	1.904E+9	   20.0862	   21.1873	    7.9870	  -14.3791	
 -270.0000	7.102E-12	2.123E+9	   20.0837	   21.1852	    7.9978	  -14.3643	
 -275.0000	7.086E-12	2.279E+9	   20.0682	   21.1876	    8.0000	  -14.3592	
 -280.0000	7.060E-12	2.269E+9	   20.0476	   21.1911	    7.9975	  -14.3604	
 -285.0000	7.038E-12	2.047E+9	   20.0193	   21.1942	    7.9984	  -14.3566	
 -290.0000	7.018E-12	2.367E+9	   19.9910	   21.1880	    7.9772	  -14.3935	
 -295.0000	6.999E-12	2.072E+9	   19.9678	   21.1945	    7.9744	  -14.3930	
 -300.0000	6.979E-12	2.032E+9	   19.9472	   21.1883	    7.9760	  -14.3952	
 -305.0000	6.960E-12	2.040E+9	   19.9395	   21.1904	    7.9769	  -14.3922	
 -310.0000	6.949E-12	2.138E+9	   19.9421	   21.1820	    7.9576	  -14.4278	
 -315.0000	6.938E-12	1.990E+9	   19.9550	   21.1869	    7.9579	  -14.4237	
 -320.0000	6.938E-12	2.167E+9	   19.9961	   21.1883	    7.9614	  -14.4174	
 -325.0000	6.919E-12	2.195E+9	   20.0322	   21.1883	    7.9766	  -14.3942	
 -330.0000	6.923E-12	2.395E+9	   20.0656	   21.1850	    7.9668	  -14.4116	
 -335.0000	6.909E-12	2.113E+9	   20.0888	   21.1859	    7.9560	  -14.4274	
 -340.0000	6.909E-12	2.167E+9	   20.0991	   21.1788	    7.9627	  -14.4225	
 -345.0000	6.912E-12	2.154E+9	   20.0991	   21.1824	    7.9671	  -14.4131	
 -350.0000	6.900E-12	2.192E+9	   20.0837	   21.1889	    7.9538	  -14.4285	
 -355.0000	6.895E-12	2.144E+9	   20.0605	   21.1827	    7.9567	  -14.4288	
 -360.0000	6.899E-12	2.337E+9	   20.0347	   21.1875	    7.9497	  -14.4358	
 -365.0000	6.890E-12	1.959E+9	   19.9910	   21.1875	    7.9402	  -14.4503	
 -370.0000	6.891E-12	2.317E+9	   19.9678	   21.1860	    7.9440	  -14.4456	
 -375.0000	6.890E-12	2.271E+9	   19.9447	   21.1882	    7.9462	  -14.4406	
 -380.0000	6.883E-12	2.050E+9	   19.9344	   21.1874	    7.9510	  -14.4340	
 -385.0000	6.884E-12	2.297E+9	   19.9369	   21.1874	    7.9494	  -14.4340	
 -390.0000	6.877E-12	2.085E+9	   19.9550	   21.1805	    7.9450	  -14.4483	
 -395.0000	6.878E-12	2.203E+9	   19.9550	   21.1805	    7.9450	  -14.4483	
 -400.0000	6.880E-12	2.374E+9	   19.9910	   21.1855	    7.9386	  -14.4542	
 -410.0000	6.876E-12	1.982E+9	   20.0193	   21.1863	    7.9269	  -14.4715	
 -420.0000	6.870E-12	2.146E+9	   20.0579	   21.1845	    7.9307	  -14.4671	
 -430.0000	6.867E-12	2.188E+9	   20.1042	   21.1835	    7.9269	  -14.4736	
 -440.0000	6.870E-12	2.342E+9	   20.1068	   21.1907	    7.9320	  -14.4605	
 -450.0000	6.871E-12	2.184E+9	   20.0862	   21.1907	    7.9352	  -14.4556	
 -460.0000	6.866E-12	2.278E+9	   20.0682	   21.1871	    7.9285	  -14.4685	
 -470.0000	6.864E-12	2.253E+9	   20.0373	   21.1843	    7.9213	  -14.4817	
 -480.0000	6.869E-12	2.313E+9	   20.0013	   21.1883	    7.9181	  -14.4836	
 -490.0000	6.858E-12	2.013E+9	   19.9781	   21.1909	    7.9225	  -14.4749	
 -500.0000	6.864E-12	2.312E+9	   19.9601	   21.1846	    7.9181	  -14.4864	
 -510.0000	6.858E-12	2.402E+9	   19.9498	   21.1840	    7.9130	  -14.4946	
 -520.0000	6.858E-12	2.050E+9	   19.9550	   21.1840	    7.9168	  -14.4887	
 -530.0000	6.861E-12	2.231E+9	   19.9704	   21.1831	    7.9197	  -14.4851	
 -540.0000	6.857E-12	2.453E+9	   19.9884	   21.1836	    7.9200	  -14.4842	
 -550.0000	6.859E-12	2.354E+9	   20.0142	   21.1860	    7.9197	  -14.4829	
 -560.0000	6.852E-12	1.993E+9	   20.0347	   21.1915	    7.9216	  -14.4759	
 -570.0000	6.855E-12	2.287E+9	   20.0579	   21.1921	    7.9159	  -14.4842	
 -580.0000	6.853E-12	2.182E+9	   20.0708	   21.1922	    7.9086	  -14.4952	
 -590.0000	6.851E-12	2.249E+9	   20.0734	   21.1910	    7.9156	  -14.4855	
 -600.0000	6.853E-12	2.413E+9	   20.0631	   21.1910	    7.9143	  -14.4874	
