36696_039_PSS_XX_HM
Date/Time: 9/14/2021 5:17:06 PM
Sensor Name: 36696_039_PSS_XX_HM
Type: P
Annealing Status: 20 minutes
Environment: -20C
Tester: Eric Spencer
Notes: Irradiated to 1.1e15 at RINSC

Time Delay per Ramp Step (s): 1.000

CV Time Delay per Measurement (s) :0.500

AC Voltage (V): 0.500

Current Number of measurements per voltage: 4.000

IV Time Delay per Measurement (s) :0.500


BiasVoltage	Bias Current_Avg	Bias Current_0	Bias Current_1	Bias Current_2	Bias Current_3	Temperature	Air_Temp	Humidity	Dewpoint	
  -10.0000	-6.0000E-8	-6.0000E-8	-6.0000E-8	-6.0000E-8	-6.0000E-8	  -19.7000	   25.7617	    1.6948	    0.0000	
  -20.0000	-5.0000E-8	-5.0000E-8	-5.0000E-8	-5.0000E-8	-5.0000E-8	  -19.7000	   25.7617	    1.6948	    0.0000	
  -30.0000	-5.0000E-8	-5.0000E-8	-5.0000E-8	-5.0000E-8	-5.0000E-8	  -19.7000	   25.7617	    1.6948	    0.0000	
  -40.0000	-5.0000E-8	-5.0000E-8	-5.0000E-8	-5.0000E-8	-5.0000E-8	  -19.7000	   25.7617	    1.6948	    0.0000	
  -50.0000	-5.0000E-8	-5.0000E-8	-5.0000E-8	-5.0000E-8	-5.0000E-8	  -19.7000	   25.7617	    1.6948	    0.0000	
  -60.0000	-5.0000E-8	-5.0000E-8	-5.0000E-8	-5.0000E-8	-5.0000E-8	  -19.7000	   25.7617	    1.6948	    0.0000	
  -70.0000	-5.0000E-8	-5.0000E-8	-5.0000E-8	-5.0000E-8	-5.0000E-8	  -19.7000	   25.7617	    1.6948	    0.0000	
  -80.0000	-5.0000E-8	-5.0000E-8	-5.0000E-8	-5.0000E-8	-5.0000E-8	  -19.7000	   25.7617	    1.6948	    0.0000	
  -90.0000	-5.0000E-8	-5.0000E-8	-5.0000E-8	-5.0000E-8	-5.0000E-8	  -19.7000	   25.7617	    1.6948	    0.0000	
 -100.0000	-5.0000E-8	-5.0000E-8	-5.0000E-8	-5.0000E-8	-5.0000E-8	  -19.7000	   25.7617	    1.6948	    0.0000	
 -110.0000	-5.0000E-8	-5.0000E-8	-5.0000E-8	-5.0000E-8	-5.0000E-8	  -19.7000	   25.7617	    1.6948	    0.0000	
