34331_007_2-S_HM_XX
Date/Time: 9/7/2021 3:30:35 PM
Sensor Name: 34331_007_2-S_HM_XX
Type: P
Annealing Status: Not Irradiated
Environment: RT
Tester: Eric Spencer
Notes: Diced at Fermilab

Time Delay per Ramp Step (s): 0.500

CV Time Delay per Measurement (s) :0.500

AC Voltage (V): 0.500

Current Number of measurements per voltage: 4.000

IV Time Delay per Measurement (s) :0.500


BiasVoltage	LCR_Cp_freq1	LCR_G_freq1	Temperature	Air_Temp	Humidity	Dewpoint	
   -5.0000	5.978E-10	4.873E-7	   23.5000	   25.5506	    2.3839	    0.0000	
  -10.0000	3.929E-10	3.579E-7	   23.5000	   25.5506	    2.3839	    0.0000	
  -15.0000	2.853E-10	1.526E-7	   23.5000	   25.5506	    2.3839	    0.0000	
  -20.0000	2.313E-10	4.829E-8	   23.5000	   25.5506	    2.3839	    0.0000	
  -25.0000	2.042E-10	3.751E-8	   23.5000	   25.5506	    2.3839	    0.0000	
  -30.0000	1.853E-10	3.259E-8	   23.5000	   25.5506	    2.3839	    0.0000	
  -35.0000	1.713E-10	2.594E-8	   23.5000	   25.5506	    2.3839	    0.0000	
  -40.0000	1.594E-10	2.272E-8	   23.5000	   25.5506	    2.3839	    0.0000	
  -45.0000	1.497E-10	2.084E-8	   23.5000	   25.5506	    2.3839	    0.0000	
  -50.0000	1.419E-10	1.770E-8	   23.5000	   25.5506	    2.3839	    0.0000	
  -55.0000	1.355E-10	1.648E-8	   23.5000	   25.5506	    2.3839	    0.0000	
  -60.0000	1.297E-10	1.579E-8	   23.5000	   25.5506	    2.3839	    0.0000	
  -65.0000	1.244E-10	1.817E-8	   23.5000	   25.5506	    2.3839	    0.0000	
  -70.0000	1.182E-10	2.138E-8	   23.5000	   25.5506	    2.3839	    0.0000	
  -75.0000	1.134E-10	2.083E-8	   23.5000	   25.5506	    2.3839	    0.0000	
  -80.0000	1.070E-10	3.083E-8	   23.5000	   25.5506	    2.3839	    0.0000	
  -85.0000	1.011E-10	1.699E-8	   23.5000	   25.5506	    2.3839	    0.0000	
  -90.0000	9.848E-11	1.340E-8	   23.5000	   25.5506	    2.3839	    0.0000	
  -95.0000	9.562E-11	1.088E-8	   23.5000	   25.5506	    2.3839	    0.0000	
 -100.0000	9.358E-11	1.009E-8	   23.5000	   25.5506	    2.3839	    0.0000	
 -105.0000	9.154E-11	9.566E-9	   23.5000	   25.5506	    2.3839	    0.0000	
 -110.0000	8.955E-11	6.444E-9	   23.5000	   25.5506	    2.3839	    0.0000	
 -115.0000	8.750E-11	1.115E-8	   23.5000	   25.5506	    2.3839	    0.0000	
 -120.0000	8.575E-11	9.209E-9	   23.5000	   25.5506	    2.3839	    0.0000	
 -125.0000	8.436E-11	9.470E-9	   23.5000	   25.5506	    2.3839	    0.0000	
 -130.0000	8.296E-11	6.354E-9	   23.5000	   25.5506	    2.3839	    0.0000	
 -135.0000	8.151E-11	7.200E-9	   23.5000	   25.5506	    2.3839	    0.0000	
 -140.0000	8.003E-11	5.998E-9	   23.5000	   25.5506	    2.3839	    0.0000	
 -145.0000	7.866E-11	7.400E-9	   23.5000	   25.5506	    2.3839	    0.0000	
 -150.0000	7.759E-11	6.807E-9	   23.5000	   25.5506	    2.3839	    0.0000	
 -155.0000	7.671E-11	7.186E-9	   23.5000	   25.5506	    2.3839	    0.0000	
 -160.0000	7.538E-11	6.634E-9	   23.5000	   25.5506	    2.3839	    0.0000	
 -165.0000	7.430E-11	6.483E-9	   23.5000	   25.5506	    2.3839	    0.0000	
 -170.0000	7.331E-11	4.725E-9	   23.5000	   25.5506	    2.3839	    0.0000	
 -175.0000	7.220E-11	5.909E-9	   23.5000	   25.5506	    2.3839	    0.0000	
 -180.0000	7.147E-11	8.870E-9	   23.5000	   25.5506	    2.3839	    0.0000	
 -185.0000	7.059E-11	6.245E-9	   23.5000	   25.5506	    2.3839	    0.0000	
 -190.0000	7.009E-11	6.264E-9	   23.5000	   25.5506	    2.3839	    0.0000	
 -195.0000	6.881E-11	6.423E-9	   23.5000	   25.5506	    2.3839	    0.0000	
 -200.0000	6.792E-11	6.843E-9	   23.5000	   25.5506	    2.3839	    0.0000	
 -205.0000	6.784E-11	6.476E-9	   23.5000	   25.5506	    2.3839	    0.0000	
 -210.0000	6.630E-11	5.296E-9	   23.5000	   25.5506	    2.3839	    0.0000	
 -215.0000	6.578E-11	4.305E-9	   23.5000	   25.5506	    2.3839	    0.0000	
 -220.0000	6.525E-11	2.872E-9	   23.5000	   25.5506	    2.3839	    0.0000	
 -225.0000	6.448E-11	4.940E-9	   23.5000	   25.5506	    2.3839	    0.0000	
 -230.0000	6.349E-11	5.455E-9	   23.5000	   25.5506	    2.3839	    0.0000	
 -235.0000	6.340E-11	5.233E-9	   23.5000	   25.5506	    2.3839	    0.0000	
 -240.0000	6.277E-11	6.005E-9	   23.5000	   25.5506	    2.3839	    0.0000	
 -245.0000	6.196E-11	5.577E-9	   23.5000	   25.5506	    2.3839	    0.0000	
 -250.0000	6.131E-11	5.341E-9	   23.5000	   25.5506	    2.3839	    0.0000	
 -255.0000	6.090E-11	2.439E-9	   23.5000	   25.5506	    2.3839	    0.0000	
 -260.0000	6.070E-11	3.505E-9	   23.5000	   25.5506	    2.3839	    0.0000	
 -265.0000	5.989E-11	4.395E-9	   23.5000	   25.5506	    2.3839	    0.0000	
 -270.0000	5.933E-11	4.342E-9	   23.5000	   25.5506	    2.3839	    0.0000	
 -275.0000	5.880E-11	3.398E-9	   23.5000	   25.5506	    2.3839	    0.0000	
 -280.0000	5.849E-11	5.267E-10	   23.5000	   25.5506	    2.3839	    0.0000	
 -285.0000	5.757E-11	4.366E-9	   23.5000	   25.5506	    2.3839	    0.0000	
 -290.0000	5.736E-11	4.024E-9	   23.5000	   25.5506	    2.3839	    0.0000	
 -295.0000	5.668E-11	3.431E-9	   23.5000	   25.5506	    2.3839	    0.0000	
 -300.0000	5.623E-11	3.779E-9	   23.5000	   25.5506	    2.3839	    0.0000	
 -305.0000	5.579E-11	2.186E-9	   23.5000	   25.5506	    2.3839	    0.0000	
 -310.0000	5.545E-11	1.200E-9	   23.5000	   25.5506	    2.3839	    0.0000	
 -315.0000	5.532E-11	3.129E-9	   23.5000	   25.5506	    2.3839	    0.0000	
 -320.0000	5.468E-11	2.631E-9	   23.5000	   25.5506	    2.3839	    0.0000	
 -325.0000	5.445E-11	3.505E-9	   23.5000	   25.5506	    2.3839	    0.0000	
 -330.0000	5.408E-11	1.743E-9	   23.5000	   25.5506	    2.3839	    0.0000	
 -335.0000	5.378E-11	2.535E-9	   23.5000	   25.5506	    2.3839	    0.0000	
 -340.0000	5.359E-11	5.178E-9	   23.5000	   25.5506	    2.3839	    0.0000	
 -345.0000	5.349E-11	1.129E-9	   23.5000	   25.5506	    2.3839	    0.0000	
 -350.0000	5.347E-11	3.725E-9	   23.5000	   25.5506	    2.3839	    0.0000	
 -355.0000	5.334E-11	1.148E-9	   23.5000	   25.5506	    2.3839	    0.0000	
 -360.0000	5.310E-11	2.042E-9	   23.5000	   25.5506	    2.3839	    0.0000	
 -365.0000	5.287E-11	2.315E-9	   23.5000	   25.5506	    2.3839	    0.0000	
 -370.0000	5.308E-11	2.933E-9	   23.5000	   25.5506	    2.3839	    0.0000	
 -375.0000	5.297E-11	4.716E-9	   23.5000	   25.5506	    2.3839	    0.0000	
 -380.0000	5.301E-11	1.814E-9	   23.5000	   25.5506	    2.3839	    0.0000	
 -385.0000	5.299E-11	4.043E-9	   23.5000	   25.5506	    2.3839	    0.0000	
 -390.0000	5.329E-11	3.296E-9	   23.5000	   25.5506	    2.3839	    0.0000	
 -395.0000	5.308E-11	4.366E-9	   23.5000	   25.5506	    2.3839	    0.0000	
 -400.0000	5.312E-11	4.553E-9	   23.5000	   25.5506	    2.3839	    0.0000	
 -410.0000	5.289E-11	2.181E-9	   23.5000	   25.5506	    2.3839	    0.0000	
 -420.0000	5.286E-11	4.236E-9	   23.5000	   25.5506	    2.3839	    0.0000	
 -430.0000	5.295E-11	2.869E-9	   23.5000	   25.5506	    2.3839	    0.0000	
 -440.0000	5.271E-11	2.374E-9	   23.5000	   25.5506	    2.3839	    0.0000	
 -450.0000	5.317E-11	3.545E-9	   23.5000	   25.5506	    2.3839	    0.0000	
 -460.0000	5.282E-11	1.630E-9	   23.5000	   25.5506	    2.3839	    0.0000	
 -470.0000	5.294E-11	4.832E-9	   23.5000	   25.5506	    2.3839	    0.0000	
 -480.0000	5.261E-11	3.198E-9	   23.5000	   25.5506	    2.3839	    0.0000	
 -490.0000	5.278E-11	2.790E-9	   23.5000	   25.5506	    2.3839	    0.0000	
 -500.0000	5.288E-11	2.331E-9	   23.5000	   25.5506	    2.3839	    0.0000	
