GCD Test
Bias: 5000.000000
IV_38212_001_PSS_HM_XX_DIODEHALF
Date/Time: 12/21/2021 2:45:56 PM
Sensor Name: 38212_001_DIODEHALF
Type: P
Annealing Status: Unirradiated
Environment: 20C
Tester: Andrew Kent

Time Delay per Ramp Step (s): 0.500

CV Time Delay per Measurement (s) :0.500

AC Voltage (V): 0.500

Current Number of measurements per voltage: 1.000

IV Time Delay per Measurement (s) :0.000


BiasVoltage	Total Current_Avg	Total Current_0	Bias Current_Avg	Bias Current_0	Temperature	Air_Temp	Humidity	Dewpoint	
  -10.0000	-1.0000E-10	-1.0000E-10	-7.486843E-11	-7.486843E-11	   20.0013	   21.5988	   22.0101	   -1.0220	
  -20.0000	-3.5000E-11	-3.5000E-11	-8.008752E-11	-8.008752E-11	   20.0013	   21.5976	   22.0101	   -1.0080	
  -30.0000	-5.1000E-11	-5.1000E-11	-8.549182E-11	-8.549182E-11	   20.0013	   21.5933	   22.0225	   -1.0039	
  -40.0000	-2.5000E-10	-2.5000E-10	-9.678131E-11	-9.678131E-11	   20.0013	   21.5947	   22.0376	   -0.9933	
  -50.0000	-5.3300E-10	-5.3300E-10	-1.132920E-10	-1.132920E-10	   20.0013	   21.5962	   22.0443	   -0.9880	
  -60.0000	-3.4600E-10	-3.4600E-10	-1.186125E-10	-1.186125E-10	   20.0013	   21.5944	   22.0506	   -0.9855	
  -70.0000	-3.8400E-10	-3.8400E-10	-1.229110E-10	-1.229110E-10	   19.9987	   21.5920	   22.0610	   -0.9811	
  -80.0000	-2.9900E-10	-2.9900E-10	-1.249952E-10	-1.249952E-10	   19.9987	   21.5932	   22.0478	   -0.9883	
  -90.0000	-3.2100E-10	-3.2100E-10	-1.262594E-10	-1.262594E-10	   19.9987	   21.5902	   22.0639	   -0.9809	
 -100.0000	-3.4500E-10	-3.4500E-10	-1.275787E-10	-1.275787E-10	   19.9987	   21.5946	   22.0607	   -0.9791	
 -110.0000	-4.0600E-10	-4.0600E-10	-1.288218E-10	-1.288218E-10	   19.9987	   21.5908	   22.0731	   -0.9747	
 -120.0000	-4.4800E-10	-4.4800E-10	-1.295245E-10	-1.295245E-10	   19.9987	   21.5896	   22.0655	   -0.9804	
 -130.0000	-4.0700E-10	-4.0700E-10	-1.311332E-10	-1.311332E-10	   19.9987	   21.5949	   22.0743	   -0.9704	
 -140.0000	-5.5800E-10	-5.5800E-10	-1.317379E-10	-1.317379E-10	   20.0013	   21.5951	   22.0746	   -0.9701	
 -150.0000	-4.6100E-10	-4.6100E-10	-1.332056E-10	-1.332056E-10	   20.0013	   21.5933	   22.0800	   -0.9682	
 -160.0000	-5.4300E-10	-5.4300E-10	-1.340642E-10	-1.340642E-10	   20.0013	   21.5946	   22.0680	   -0.9746	
 -170.0000	-5.8200E-10	-5.8200E-10	-1.360276E-10	-1.360276E-10	   20.0013	   21.5879	   22.0759	   -0.9753	
 -180.0000	-5.7300E-10	-5.7300E-10	-1.385410E-10	-1.385410E-10	   20.0013	   21.5933	   22.0677	   -0.9759	
 -190.0000	-6.5900E-10	-6.5900E-10	-1.421666E-10	-1.421666E-10	   20.0013	   21.5890	   22.0620	   -0.9830	
 -200.0000	-6.0900E-10	-6.0900E-10	-1.465557E-10	-1.465557E-10	   20.0013	   21.5944	   22.0614	   -0.9789	
 -210.0000	-6.8000E-10	-6.8000E-10	-1.522879E-10	-1.522879E-10	   20.0013	   21.5891	   22.0645	   -0.9814	
 -220.0000	-6.6600E-10	-6.6600E-10	-1.580268E-10	-1.580268E-10	   20.0013	   21.5885	   22.0588	   -0.9854	
 -230.0000	-6.1400E-10	-6.1400E-10	-1.621557E-10	-1.621557E-10	   19.9987	   21.5907	   22.0550	   -0.9859	
 -240.0000	-6.3600E-10	-6.3600E-10	-1.660234E-10	-1.660234E-10	   19.9987	   21.5917	   22.0566	   -0.9841	
 -250.0000	-6.5500E-10	-6.5500E-10	-1.690443E-10	-1.690443E-10	   19.9987	   21.5880	   22.0547	   -0.9883	
 -260.0000	-6.6700E-10	-6.6700E-10	-1.720155E-10	-1.720155E-10	   19.9961	   21.5913	   22.0481	   -0.9897	
 -270.0000	-7.1800E-10	-7.1800E-10	-1.744022E-10	-1.744022E-10	   19.9987	   21.5899	   22.0506	   -0.9893	
 -280.0000	-8.1300E-10	-8.1300E-10	-1.767385E-10	-1.767385E-10	   19.9987	   21.5927	   22.0402	   -0.9934	
 -290.0000	-7.9600E-10	-7.9600E-10	-1.784294E-10	-1.784294E-10	   19.9987	   21.5927	   22.0503	   -0.9934	
 -300.0000	-7.8000E-10	-7.8000E-10	-1.803946E-10	-1.803946E-10	   19.9987	   21.5935	   22.0383	   -0.9865	
 -310.0000	-7.5900E-10	-7.5900E-10	-1.820773E-10	-1.820773E-10	   19.9987	   21.5910	   22.0357	   -0.9960	
 -320.0000	-7.8300E-10	-7.8300E-10	-1.837432E-10	-1.837432E-10	   20.0013	   21.5896	   22.0326	   -0.9987	
 -330.0000	-8.6400E-10	-8.6400E-10	-1.849143E-10	-1.849143E-10	   20.0013	   21.5922	   22.0417	   -0.9985	
 -340.0000	-7.9700E-10	-7.9700E-10	-1.863006E-10	-1.863006E-10	   20.0013	   21.5869	   22.0417	   -0.9972	
 -350.0000	-9.2800E-10	-9.2800E-10	-1.877198E-10	-1.877198E-10	   20.0013	   21.5851	   22.0272	   -1.0078	
 -360.0000	-8.0800E-10	-8.0800E-10	-1.890380E-10	-1.890380E-10	   20.0039	   21.5820	   22.0225	   -1.0133	
 -370.0000	-8.6700E-10	-8.6700E-10	-1.903355E-10	-1.903355E-10	   20.0039	   21.5834	   22.0187	   -1.0145	
 -380.0000	-8.7200E-10	-8.7200E-10	-1.909544E-10	-1.909544E-10	   20.0013	   21.5889	   22.0202	   -1.0089	
 -390.0000	-9.1800E-10	-9.1800E-10	-1.917192E-10	-1.917192E-10	   20.0039	   21.5843	   22.0183	   -1.0139	
 -400.0000	-8.7300E-10	-8.7300E-10	-1.928069E-10	-1.928069E-10	   20.0013	   21.5835	   22.0101	   -1.0197	
 -420.0000	-1.0670E-9	-1.0670E-9	-1.950808E-10	-1.950808E-10	   20.0013	   21.5849	   22.0098	   -1.0188	
 -440.0000	-1.2250E-9	-1.2250E-9	-1.966608E-10	-1.966608E-10	   20.0013	   21.5883	   22.0123	   -1.0144	
 -460.0000	-1.1730E-9	-1.1730E-9	-1.984067E-10	-1.984067E-10	   19.9987	   21.5883	   21.9930	   -1.0144	
 -480.0000	-1.2710E-9	-1.2710E-9	-2.004752E-10	-2.004752E-10	   19.9987	   21.5883	   21.9930	   -1.0263	
 -500.0000	-1.3080E-9	-1.3080E-9	-2.015759E-10	-2.015759E-10	   19.9987	   21.5829	   22.0038	   -1.0241	
 -520.0000	-1.3540E-9	-1.3540E-9	-2.029138E-10	-2.029138E-10	   19.9987	   21.5823	   21.9946	   -1.0303	
 -540.0000	-1.4700E-9	-1.4700E-9	-2.047284E-10	-2.047284E-10	   19.9987	   21.5791	   22.0025	   -1.0281	
 -560.0000	-1.5000E-9	-1.5000E-9	-2.060179E-10	-2.060179E-10	   20.0013	   21.5791	   21.9807	   -1.0281	
 -580.0000	-1.5230E-9	-1.5230E-9	-2.078488E-10	-2.078488E-10	   20.0013	   21.5803	   21.9807	   -1.0406	
 -600.0000	-1.5540E-9	-1.5540E-9	-2.086679E-10	-2.086679E-10	   20.0013	   21.5819	   21.9829	   -1.0379	
 -620.0000	-1.6260E-9	-1.6260E-9	-2.100228E-10	-2.100228E-10	   20.0013	   21.5783	   21.9896	   -1.0368	
 -640.0000	-1.6680E-9	-1.6680E-9	-2.113984E-10	-2.113984E-10	   20.0013	   21.5780	   21.9763	   -1.0453	
 -660.0000	-1.6840E-9	-1.6840E-9	-2.127278E-10	-2.127278E-10	   20.0013	   21.5780	   21.9763	   -1.0453	
 -680.0000	-1.7270E-9	-1.7270E-9	-2.142500E-10	-2.142500E-10	   20.0039	   21.5772	   21.9617	   -1.0549	
 -700.0000	-1.7410E-9	-1.7410E-9	-2.159394E-10	-2.159394E-10	   20.0039	   21.5831	   21.9630	   -1.0493	
 -720.0000	-1.8140E-9	-1.8140E-9	-2.169922E-10	-2.169922E-10	   20.0039	   21.5790	   21.9639	   -1.0521	
 -740.0000	-1.9530E-9	-1.9530E-9	-2.184928E-10	-2.184928E-10	   20.0013	   21.5794	   21.9633	   -1.0522	
 -760.0000	-1.8280E-9	-1.8280E-9	-2.200098E-10	-2.200098E-10	   20.0013	   21.5794	   21.9478	   -1.0522	
 -780.0000	-1.8940E-9	-1.8940E-9	-2.215009E-10	-2.215009E-10	   20.0013	   21.5794	   21.9478	   -1.0618	
 -800.0000	-1.8880E-9	-1.8880E-9	-2.232834E-10	-2.232834E-10	   20.0013	   21.5794	   21.9459	   -1.0629	
 -820.0000	-1.9530E-9	-1.9530E-9	-2.254024E-10	-2.254024E-10	   20.0013	   21.5758	   21.9424	   -1.0681	
 -840.0000	-2.0450E-9	-2.0450E-9	-2.271928E-10	-2.271928E-10	   20.0013	   21.5758	   21.9323	   -1.0681	
 -860.0000	-2.0240E-9	-2.0240E-9	-2.291373E-10	-2.291373E-10	   20.0013	   21.5795	   21.9323	   -1.0713	
 -880.0000	-2.0550E-9	-2.0550E-9	-2.315023E-10	-2.315023E-10	   19.9987	   21.5758	   21.9333	   -1.0738	
 -900.0000	-2.0650E-9	-2.0650E-9	-2.337121E-10	-2.337121E-10	   20.0013	   21.5754	   21.9254	   -1.0790	
 -920.0000	-2.1000E-9	-2.1000E-9	-2.366890E-10	-2.366890E-10	   19.9987	   21.5754	   21.9197	   -1.0790	
 -940.0000	-2.1370E-9	-2.1370E-9	-2.396699E-10	-2.396699E-10	   19.9987	   21.5778	   21.9197	   -1.0806	
 -960.0000	-2.1630E-9	-2.1630E-9	-2.432229E-10	-2.432229E-10	   19.9987	   21.5781	   21.9162	   -1.0825	
 -980.0000	-2.2930E-9	-2.2930E-9	-2.480028E-10	-2.480028E-10	   19.9987	   21.5693	   21.9200	   -1.0874	
-1000.0000	-2.2310E-9	-2.2310E-9	-2.516272E-10	-2.516272E-10	   19.9987	   21.5693	   21.9032	   -1.0874	
