37399_049_PSS_HM_X_Irrad_1100min
Date/Time: 2/3/2022 12:47:09 PM
Sensor Name: 37399_049_PSS_HM_X
Station: Tesla
Annealing Status: 1100 min
Environment: -20C
Tester: Eric Spencer
Notes: After Alibava Testing

Time Delay per Ramp Step (s): 1.000

CV Time Delay per Measurement (s) :0.500

AC Voltage (V): 0.500

Current Number of measurements per voltage: 4.000

IV Time Delay per Measurement (s) :0.500


BiasVoltage	LCR_Cp_freq1000.0	LCR_G_freq1000.0	Temperature	Air_Temp	Humidity	Dewpoint	
  -10.0000	1.716E-10	1.768E-6	  -20.0000	   26.7567	    1.3413	    0.0000	
  -20.0000	1.793E-10	1.456E-6	  -20.0000	   26.7567	    1.3413	    0.0000	
  -30.0000	1.779E-10	1.252E-6	  -20.0000	   26.7567	    1.3413	    0.0000	
  -40.0000	1.724E-10	1.098E-6	  -20.0000	   26.7567	    1.3413	    0.0000	
  -50.0000	1.671E-10	9.800E-7	  -20.0000	   26.7567	    1.3413	    0.0000	
  -60.0000	1.630E-10	8.819E-7	  -20.0000	   26.7567	    1.3413	    0.0000	
  -70.0000	1.581E-10	8.064E-7	  -20.0000	   26.7567	    1.3413	    0.0000	
  -80.0000	1.526E-10	7.438E-7	  -20.0000	   26.7567	    1.3413	    0.0000	
  -90.0000	1.484E-10	6.928E-7	  -20.0000	   26.7567	    1.3413	    0.0000	
 -100.0000	1.445E-10	6.444E-7	  -20.0000	   26.7567	    1.3413	    0.0000	
 -110.0000	1.408E-10	6.048E-7	  -20.0000	   26.7567	    1.3413	    0.0000	
 -120.0000	1.372E-10	5.637E-7	  -20.0000	   26.7567	    1.3413	    0.0000	
 -130.0000	1.345E-10	5.332E-7	  -20.0000	   26.7567	    1.3413	    0.0000	
 -140.0000	1.323E-10	5.056E-7	  -20.0000	   26.7567	    1.3413	    0.0000	
 -150.0000	1.294E-10	4.868E-7	  -20.0000	   26.7567	    1.3413	    0.0000	
 -160.0000	1.280E-10	4.637E-7	  -20.0000	   26.7567	    1.3413	    0.0000	
 -170.0000	1.257E-10	4.505E-7	  -20.0000	   26.7567	    1.3413	    0.0000	
 -180.0000	1.234E-10	4.288E-7	  -20.0000	   26.7567	    1.3413	    0.0000	
 -190.0000	1.218E-10	4.115E-7	  -20.0000	   26.7567	    1.3413	    0.0000	
 -200.0000	1.204E-10	4.012E-7	  -20.0000	   26.7567	    1.3413	    0.0000	
 -210.0000	1.197E-10	3.806E-7	  -20.0000	   26.7567	    1.3413	    0.0000	
 -220.0000	1.172E-10	3.676E-7	  -20.0000	   26.7567	    1.3413	    0.0000	
 -230.0000	1.153E-10	3.642E-7	  -20.0000	   26.7567	    1.3413	    0.0000	
 -240.0000	1.141E-10	3.541E-7	  -20.0000	   26.7567	    1.3413	    0.0000	
 -250.0000	1.136E-10	3.517E-7	  -20.0000	   26.7567	    1.3413	    0.0000	
 -260.0000	1.115E-10	3.390E-7	  -20.0000	   26.7567	    1.3413	    0.0000	
 -270.0000	1.098E-10	3.348E-7	  -20.0000	   26.7567	    1.3413	    0.0000	
 -280.0000	1.090E-10	3.253E-7	  -20.0000	   26.7567	    1.3413	    0.0000	
 -290.0000	1.072E-10	3.228E-7	  -20.0000	   26.7567	    1.3413	    0.0000	
 -300.0000	1.064E-10	3.120E-7	  -20.0000	   26.7567	    1.3413	    0.0000	
 -310.0000	1.065E-10	3.064E-7	  -20.0000	   26.7567	    1.3413	    0.0000	
 -320.0000	1.047E-10	3.091E-7	  -20.0000	   26.7567	    1.3413	    0.0000	
 -330.0000	1.044E-10	3.054E-7	  -20.0000	   26.7567	    1.3413	    0.0000	
 -340.0000	1.030E-10	2.934E-7	  -20.0000	   26.7567	    1.3413	    0.0000	
 -350.0000	1.009E-10	2.827E-7	  -20.0000	   26.7567	    1.3413	    0.0000	
 -360.0000	9.959E-11	2.832E-7	  -20.0000	   26.7567	    1.3413	    0.0000	
 -370.0000	9.843E-11	2.772E-7	  -20.0000	   26.7567	    1.3413	    0.0000	
 -380.0000	9.649E-11	2.734E-7	  -20.0000	   26.7567	    1.3413	    0.0000	
 -390.0000	9.615E-11	2.590E-7	  -20.0000	   26.7567	    1.3413	    0.0000	
 -400.0000	9.522E-11	2.703E-7	  -20.0000	   26.7567	    1.3413	    0.0000	
 -410.0000	9.477E-11	2.564E-7	  -20.0000	   26.7567	    1.3413	    0.0000	
 -420.0000	9.195E-11	2.494E-7	  -20.0000	   26.7567	    1.3413	    0.0000	
 -430.0000	9.162E-11	2.567E-7	  -20.0000	   26.7567	    1.3413	    0.0000	
 -440.0000	9.160E-11	2.434E-7	  -20.0000	   26.7567	    1.3413	    0.0000	
 -450.0000	9.121E-11	2.465E-7	  -20.0000	   26.7567	    1.3413	    0.0000	
 -460.0000	8.997E-11	2.301E-7	  -20.0000	   26.7567	    1.3413	    0.0000	
 -470.0000	8.913E-11	2.331E-7	  -20.0000	   26.7567	    1.3413	    0.0000	
 -480.0000	8.821E-11	2.336E-7	  -20.0000	   26.7567	    1.3413	    0.0000	
 -490.0000	8.721E-11	2.279E-7	  -20.0000	   26.7567	    1.3413	    0.0000	
 -500.0000	8.683E-11	2.285E-7	  -20.0000	   26.7567	    1.3413	    0.0000	
 -510.0000	8.490E-11	2.164E-7	  -20.0000	   26.7567	    1.3413	    0.0000	
 -520.0000	8.250E-11	2.150E-7	  -20.0000	   26.7567	    1.3413	    0.0000	
 -530.0000	8.203E-11	2.070E-7	  -20.0000	   26.7567	    1.3413	    0.0000	
 -540.0000	8.198E-11	2.058E-7	  -20.0000	   26.7567	    1.3413	    0.0000	
 -550.0000	8.222E-11	1.991E-7	  -20.0000	   26.7567	    1.3413	    0.0000	
 -560.0000	7.951E-11	1.987E-7	  -20.0000	   26.7567	    1.3413	    0.0000	
 -570.0000	7.970E-11	1.887E-7	  -20.0000	   26.7567	    1.3413	    0.0000	
 -580.0000	7.628E-11	1.886E-7	  -20.0000	   26.7567	    1.3413	    0.0000	
 -590.0000	7.674E-11	1.882E-7	  -20.0000	   26.7567	    1.3413	    0.0000	
 -600.0000	7.761E-11	1.819E-7	  -20.0000	   26.7567	    1.3413	    0.0000	
 -610.0000	7.531E-11	1.955E-7	  -20.0000	   26.7567	    1.3413	    0.0000	
 -620.0000	7.562E-11	1.692E-7	  -20.0000	   26.7567	    1.3413	    0.0000	
 -630.0000	7.292E-11	1.624E-7	  -20.0000	   26.7567	    1.3413	    0.0000	
 -640.0000	7.486E-11	1.587E-7	  -20.0000	   26.7567	    1.3413	    0.0000	
 -650.0000	7.146E-11	1.581E-7	  -20.0000	   26.7567	    1.3413	    0.0000	
 -660.0000	6.953E-11	1.715E-7	  -20.0000	   26.7567	    1.3413	    0.0000	
 -670.0000	7.163E-11	1.536E-7	  -20.0000	   26.7567	    1.3413	    0.0000	
 -680.0000	7.000E-11	1.629E-7	  -20.0000	   26.7567	    1.3413	    0.0000	
 -690.0000	7.031E-11	1.571E-7	  -20.0000	   26.7567	    1.3413	    0.0000	
 -700.0000	6.965E-11	1.466E-7	  -20.0000	   26.7567	    1.3413	    0.0000	
 -710.0000	6.553E-11	1.336E-7	  -20.0000	   26.7567	    1.3413	    0.0000	
 -720.0000	6.569E-11	1.339E-7	  -20.0000	   26.7567	    1.3413	    0.0000	
 -730.0000	6.514E-11	1.440E-7	  -20.0000	   26.7567	    1.3413	    0.0000	
 -740.0000	6.562E-11	1.301E-7	  -20.0000	   26.7567	    1.3413	    0.0000	
 -750.0000	6.417E-11	1.442E-7	  -20.0000	   26.7567	    1.3413	    0.0000	
 -760.0000	6.418E-11	1.311E-7	  -20.0000	   26.7567	    1.3413	    0.0000	
 -770.0000	6.433E-11	1.289E-7	  -20.0000	   26.7567	    1.3413	    0.0000	
 -780.0000	6.394E-11	1.262E-7	  -20.0000	   26.7567	    1.3413	    0.0000	
 -790.0000	6.475E-11	1.362E-7	  -20.0000	   26.7567	    1.3413	    0.0000	
 -800.0000	6.369E-11	1.170E-7	  -20.0000	   26.7567	    1.3413	    0.0000	
 -810.0000	6.348E-11	9.969E-8	  -20.0000	   26.7567	    1.3413	    0.0000	
 -820.0000	6.130E-11	1.175E-7	  -20.0000	   26.7567	    1.3413	    0.0000	
 -830.0000	6.189E-11	1.046E-7	  -20.0000	   26.7567	    1.3413	    0.0000	
 -840.0000	5.918E-11	1.012E-7	  -20.0000	   26.7567	    1.3413	    0.0000	
 -850.0000	6.061E-11	9.824E-8	  -20.0000	   26.7567	    1.3413	    0.0000	
 -860.0000	5.848E-11	1.061E-7	  -20.0000	   26.7567	    1.3413	    0.0000	
 -870.0000	5.764E-11	1.046E-7	  -20.0000	   26.7567	    1.3413	    0.0000	
 -880.0000	5.914E-11	9.590E-8	  -20.0000	   26.7567	    1.3413	    0.0000	
 -890.0000	5.489E-11	1.087E-7	  -20.0000	   26.7567	    1.3413	    0.0000	
 -900.0000	5.680E-11	8.661E-8	  -20.0000	   26.7567	    1.3413	    0.0000	
 -910.0000	5.762E-11	9.623E-8	  -20.0000	   26.7567	    1.3413	    0.0000	
 -920.0000	5.579E-11	9.657E-8	  -20.0000	   26.7567	    1.3413	    0.0000	
 -930.0000	5.568E-11	8.822E-8	  -20.0000	   26.7567	    1.3413	    0.0000	
 -940.0000	5.367E-11	1.023E-7	  -20.0000	   26.7567	    1.3413	    0.0000	
 -950.0000	5.340E-11	8.697E-8	  -20.0000	   26.7567	    1.3413	    0.0000	
 -960.0000	5.435E-11	9.278E-8	  -20.0000	   26.7567	    1.3413	    0.0000	
 -970.0000	5.525E-11	7.808E-8	  -20.0000	   26.7567	    1.3413	    0.0000	
 -980.0000	5.173E-11	8.231E-8	  -20.0000	   26.7567	    1.3413	    0.0000	
 -990.0000	5.370E-11	9.593E-8	  -20.0000	   26.7567	    1.3413	    0.0000	
-1000.0000	5.545E-11	8.306E-8	  -20.0000	   26.7567	    1.3413	    0.0000	
