34252_018_PSS_HM_XX_Irrad_-10C
Date/Time: 6/25/2021 4:00:53 PM
Sensor Name: 34252_004_PSS_HM_XX
Type: P
Annealing Status: 20 minutes
Environment: -10C
Tester: Eric Spencer
Notes: Irradiated to 1.1e15 at RINSC

Time Delay per Ramp Step (s): 1.000

CV Time Delay per Measurement (s) :0.500

AC Voltage (V): 0.500

Current Number of measurements per voltage: 4.000

IV Time Delay per Measurement (s) :0.500


BiasVoltage	LCR_Cp_freq1	LCR_G_freq1	Temperature	Air_Temp	Humidity	Dewpoint	
  -10.0000	4.095E-10	3.809E-6	   -9.9906	   24.4870	    7.5954	    0.0000	
  -20.0000	3.835E-10	2.801E-6	   -9.9906	   24.4870	    7.5954	    0.0000	
  -30.0000	3.535E-10	2.299E-6	   -9.9906	   24.4870	    7.5954	    0.0000	
  -40.0000	3.277E-10	1.984E-6	   -9.9906	   24.4870	    7.5954	    0.0000	
  -50.0000	3.060E-10	1.757E-6	   -9.9906	   24.4870	    7.5954	    0.0000	
  -60.0000	2.884E-10	1.586E-6	   -9.9906	   24.4870	    7.5954	    0.0000	
  -70.0000	2.736E-10	1.453E-6	   -9.9906	   24.4870	    7.5954	    0.0000	
  -80.0000	2.609E-10	1.348E-6	   -9.9906	   24.4870	    7.5954	    0.0000	
  -90.0000	2.499E-10	1.262E-6	   -9.9906	   24.4870	    7.5954	    0.0000	
 -100.0000	2.400E-10	1.189E-6	   -9.9906	   24.4870	    7.5954	    0.0000	
 -110.0000	2.312E-10	1.126E-6	   -9.9906	   24.4870	    7.5954	    0.0000	
 -120.0000	2.231E-10	1.071E-6	   -9.9906	   24.4870	    7.5954	    0.0000	
 -130.0000	2.159E-10	1.023E-6	   -9.9906	   24.4870	    7.5954	    0.0000	
 -140.0000	2.092E-10	9.795E-7	   -9.9906	   24.4870	    7.5954	    0.0000	
 -150.0000	2.033E-10	9.409E-7	   -9.9906	   24.4870	    7.5954	    0.0000	
 -160.0000	1.977E-10	9.061E-7	   -9.9906	   24.4870	    7.5954	    0.0000	
 -170.0000	1.926E-10	8.747E-7	   -9.9906	   24.4870	    7.5954	    0.0000	
 -180.0000	1.879E-10	8.457E-7	   -9.9906	   24.4870	    7.5954	    0.0000	
 -190.0000	1.834E-10	8.185E-7	   -9.9906	   24.4870	    7.5954	    0.0000	
 -200.0000	1.794E-10	7.942E-7	   -9.9906	   24.4870	    7.5954	    0.0000	
 -210.0000	1.755E-10	7.716E-7	   -9.9906	   24.4870	    7.5954	    0.0000	
 -220.0000	1.720E-10	7.499E-7	   -9.9906	   24.4870	    7.5954	    0.0000	
 -230.0000	1.687E-10	7.308E-7	   -9.9906	   24.4870	    7.5954	    0.0000	
 -240.0000	1.655E-10	7.122E-7	   -9.9906	   24.4870	    7.5954	    0.0000	
 -250.0000	1.625E-10	6.952E-7	   -9.9906	   24.4870	    7.5954	    0.0000	
 -260.0000	1.596E-10	6.790E-7	   -9.9906	   24.4870	    7.5954	    0.0000	
 -270.0000	1.570E-10	6.640E-7	   -9.9906	   24.4870	    7.5954	    0.0000	
 -280.0000	1.545E-10	6.494E-7	   -9.9906	   24.4870	    7.5954	    0.0000	
 -290.0000	1.525E-10	6.381E-7	   -9.9906	   24.4870	    7.5954	    0.0000	
 -300.0000	1.506E-10	6.272E-7	   -9.9906	   24.4870	    7.5954	    0.0000	
 -310.0000	1.487E-10	6.162E-7	   -9.9906	   24.4870	    7.5954	    0.0000	
 -320.0000	1.472E-10	6.081E-7	   -9.9906	   24.4870	    7.5954	    0.0000	
 -330.0000	1.461E-10	6.025E-7	   -9.9906	   24.4870	    7.5954	    0.0000	
 -340.0000	1.456E-10	5.978E-7	   -9.9906	   24.4870	    7.5954	    0.0000	
 -350.0000	1.450E-10	5.944E-7	   -9.9906	   24.4870	    7.5954	    0.0000	
 -360.0000	1.446E-10	5.926E-7	   -9.9906	   24.4870	    7.5954	    0.0000	
 -370.0000	1.442E-10	5.910E-7	   -9.9906	   24.4870	    7.5954	    0.0000	
 -380.0000	1.441E-10	5.892E-7	   -9.9906	   24.4870	    7.5954	    0.0000	
 -390.0000	1.439E-10	5.880E-7	   -9.9906	   24.4870	    7.5954	    0.0000	
 -400.0000	1.434E-10	5.868E-7	   -9.9906	   24.4870	    7.5954	    0.0000	
 -410.0000	1.433E-10	5.869E-7	   -9.9906	   24.4870	    7.5954	    0.0000	
 -420.0000	1.435E-10	5.858E-7	   -9.9906	   24.4870	    7.5954	    0.0000	
 -430.0000	1.432E-10	5.852E-7	   -9.9906	   24.4870	    7.5954	    0.0000	
 -440.0000	1.430E-10	5.859E-7	   -9.9906	   24.4870	    7.5954	    0.0000	
 -450.0000	1.430E-10	5.848E-7	   -9.9906	   24.4870	    7.5954	    0.0000	
 -460.0000	1.432E-10	5.846E-7	   -9.9906	   24.4870	    7.5954	    0.0000	
 -470.0000	1.429E-10	5.838E-7	   -9.9906	   24.4870	    7.5954	    0.0000	
 -480.0000	1.430E-10	5.844E-7	   -9.9906	   24.4870	    7.5954	    0.0000	
 -490.0000	1.431E-10	5.842E-7	   -9.9906	   24.4870	    7.5954	    0.0000	
 -500.0000	1.431E-10	5.837E-7	   -9.9906	   24.4870	    7.5954	    0.0000	
 -510.0000	1.429E-10	5.839E-7	   -9.9906	   24.4870	    7.5954	    0.0000	
 -520.0000	1.432E-10	5.839E-7	   -9.9906	   24.4870	    7.5954	    0.0000	
 -530.0000	1.430E-10	5.842E-7	   -9.9906	   24.4870	    7.5954	    0.0000	
 -540.0000	1.430E-10	5.841E-7	   -9.9906	   24.4870	    7.5954	    0.0000	
 -550.0000	1.429E-10	5.843E-7	   -9.9906	   24.4870	    7.5954	    0.0000	
 -560.0000	1.433E-10	5.842E-7	   -9.9906	   24.4870	    7.5954	    0.0000	
 -570.0000	1.429E-10	5.839E-7	   -9.9906	   24.4870	    7.5954	    0.0000	
 -580.0000	1.428E-10	5.841E-7	   -9.9906	   24.4870	    7.5954	    0.0000	
 -590.0000	1.431E-10	5.838E-7	   -9.9906	   24.4870	    7.5954	    0.0000	
 -600.0000	1.431E-10	5.844E-7	   -9.9906	   24.4870	    7.5954	    0.0000	
 -610.0000	1.430E-10	5.831E-7	   -9.9906	   24.4870	    7.5954	    0.0000	
 -620.0000	1.431E-10	5.841E-7	   -9.9906	   24.4870	    7.5954	    0.0000	
 -630.0000	1.428E-10	5.845E-7	   -9.9906	   24.4870	    7.5954	    0.0000	
 -640.0000	1.429E-10	5.833E-7	   -9.9906	   24.4870	    7.5954	    0.0000	
 -650.0000	1.431E-10	5.830E-7	   -9.9906	   24.4870	    7.5954	    0.0000	
 -660.0000	1.428E-10	5.835E-7	   -9.9906	   24.4870	    7.5954	    0.0000	
 -670.0000	1.430E-10	5.828E-7	   -9.9906	   24.4870	    7.5954	    0.0000	
 -680.0000	1.429E-10	5.829E-7	   -9.9906	   24.4870	    7.5954	    0.0000	
 -690.0000	1.432E-10	5.843E-7	   -9.9906	   24.4870	    7.5954	    0.0000	
 -700.0000	1.432E-10	5.849E-7	   -9.9906	   24.4870	    7.5954	    0.0000	
 -710.0000	1.429E-10	5.841E-7	   -9.9906	   24.4870	    7.5954	    0.0000	
 -720.0000	1.429E-10	5.844E-7	   -9.9906	   24.4870	    7.5954	    0.0000	
 -730.0000	1.429E-10	5.839E-7	   -9.9906	   24.4870	    7.5954	    0.0000	
 -740.0000	1.431E-10	5.839E-7	   -9.9906	   24.4870	    7.5954	    0.0000	
 -750.0000	1.431E-10	5.847E-7	   -9.9906	   24.4870	    7.5954	    0.0000	
 -760.0000	1.429E-10	5.850E-7	   -9.9906	   24.4870	    7.5954	    0.0000	
 -770.0000	1.432E-10	5.852E-7	   -9.9906	   24.4870	    7.5954	    0.0000	
 -780.0000	1.431E-10	5.844E-7	   -9.9906	   24.4870	    7.5954	    0.0000	
 -790.0000	1.432E-10	5.842E-7	   -9.9906	   24.4870	    7.5954	    0.0000	
 -800.0000	1.431E-10	5.838E-7	   -9.9906	   24.4870	    7.5954	    0.0000	
 -810.0000	1.431E-10	5.846E-7	   -9.9906	   24.4870	    7.5954	    0.0000	
 -820.0000	1.429E-10	5.848E-7	   -9.9906	   24.4870	    7.5954	    0.0000	
 -830.0000	1.431E-10	5.834E-7	   -9.9906	   24.4870	    7.5954	    0.0000	
 -840.0000	1.427E-10	5.839E-7	   -9.9906	   24.4870	    7.5954	    0.0000	
 -850.0000	1.430E-10	5.832E-7	   -9.9906	   24.4870	    7.5954	    0.0000	
 -860.0000	1.429E-10	5.840E-7	   -9.9906	   24.4870	    7.5954	    0.0000	
 -870.0000	1.428E-10	5.843E-7	   -9.9906	   24.4870	    7.5954	    0.0000	
 -880.0000	1.430E-10	5.845E-7	   -9.9906	   24.4870	    7.5954	    0.0000	
 -890.0000	1.429E-10	5.843E-7	   -9.9906	   24.4870	    7.5954	    0.0000	
 -900.0000	1.428E-10	5.843E-7	   -9.9906	   24.4870	    7.5954	    0.0000	
 -910.0000	1.431E-10	5.842E-7	   -9.9906	   24.4870	    7.5954	    0.0000	
 -920.0000	1.429E-10	5.846E-7	   -9.9906	   24.4870	    7.5954	    0.0000	
 -930.0000	1.432E-10	5.842E-7	   -9.9906	   24.4870	    7.5954	    0.0000	
 -940.0000	1.429E-10	5.841E-7	   -9.9906	   24.4870	    7.5954	    0.0000	
 -950.0000	1.432E-10	5.844E-7	   -9.9906	   24.4870	    7.5954	    0.0000	
 -960.0000	1.429E-10	5.842E-7	   -9.9906	   24.4870	    7.5954	    0.0000	
 -970.0000	1.431E-10	5.841E-7	   -9.9906	   24.4870	    7.5954	    0.0000	
 -980.0000	1.432E-10	5.843E-7	   -9.9906	   24.4870	    7.5954	    0.0000	
 -990.0000	1.430E-10	5.844E-7	   -9.9906	   24.4870	    7.5954	    0.0000	
-1000.0000	1.432E-10	5.845E-7	   -9.9906	   24.4870	    7.5954	    0.0000	
