34340_039_PSS_HM_XX_Irrad_-10C
Date/Time: 6/28/2021 1:58:51 PM
Sensor Name: 34340_039_PSS_HM_XX
Type: P
Annealing Status: 20 minutes
Environment: -10C
Tester: Eric Spencer
Notes: Irradiated to 1.1e15 at RINSC

Time Delay per Ramp Step (s): 1.000

CV Time Delay per Measurement (s) :0.500

AC Voltage (V): 0.500

Current Number of measurements per voltage: 4.000

IV Time Delay per Measurement (s) :0.500


BiasVoltage	Bias Current_Avg	Bias Current_0	Bias Current_1	Bias Current_2	Bias Current_3	Temperature	Air_Temp	Humidity	Dewpoint	
  -10.0000	-1.5538E-5	-1.5533E-5	-1.5536E-5	-1.5540E-5	-1.5545E-5	   -9.9973	   21.8001	   10.5014	    0.0000	
  -20.0000	-2.1908E-5	-2.1897E-5	-2.1905E-5	-2.1911E-5	-2.1917E-5	   -9.9973	   21.8001	   10.5014	    0.0000	
  -30.0000	-2.7287E-5	-2.7248E-5	-2.7273E-5	-2.7300E-5	-2.7326E-5	   -9.9973	   21.8001	   10.5014	    0.0000	
  -40.0000	-3.2518E-5	-3.2464E-5	-3.2498E-5	-3.2540E-5	-3.2572E-5	   -9.9973	   21.8001	   10.5014	    0.0000	
  -50.0000	-3.7485E-5	-3.7457E-5	-3.7455E-5	-3.7498E-5	-3.7530E-5	   -9.9973	   21.8001	   10.5014	    0.0000	
  -60.0000	-4.2067E-5	-4.1943E-5	-4.2028E-5	-4.2117E-5	-4.2180E-5	   -9.9973	   21.8001	   10.5014	    0.0000	
  -70.0000	-4.7437E-5	-4.7304E-5	-4.7407E-5	-4.7495E-5	-4.7542E-5	   -9.9973	   21.8001	   10.5014	    0.0000	
  -80.0000	-5.3478E-5	-5.3064E-5	-5.3348E-5	-5.3630E-5	-5.3871E-5	   -9.9973	   21.8001	   10.5014	    0.0000	
  -90.0000	-5.9395E-5	-5.8706E-5	-5.9166E-5	-5.9681E-5	-6.0029E-5	   -9.9973	   21.8001	   10.5014	    0.0000	
 -100.0000	-6.8416E-5	-6.8219E-5	-6.8431E-5	-6.8713E-5	-6.8303E-5	   -9.9973	   21.8001	   10.5014	    0.0000	
 -110.0000	-7.7549E-5	-7.6807E-5	-7.7311E-5	-7.7817E-5	-7.8259E-5	   -9.9973	   21.8001	   10.5014	    0.0000	
 -120.0000	-8.8019E-5	-8.7631E-5	-8.7781E-5	-8.8163E-5	-8.8501E-5	   -9.9973	   21.8001	   10.5014	    0.0000	
 -130.0000	-9.8719E-5	-9.7966E-5	-9.8529E-5	-9.8971E-5	-9.9412E-5	   -9.9973	   21.8001	   10.5014	    0.0000	
 -140.0000	-1.1355E-4	-1.1424E-4	-1.1371E-4	-1.1348E-4	-1.1277E-4	   -9.9973	   21.8001	   10.5014	    0.0000	
 -150.0000	-1.2273E-4	-1.2120E-4	-1.2254E-4	-1.2324E-4	-1.2393E-4	   -9.9973	   21.8001	   10.5014	    0.0000	
 -160.0000	-1.3609E-4	-1.3382E-4	-1.3501E-4	-1.3711E-4	-1.3843E-4	   -9.9973	   21.8001	   10.5014	    0.0000	
 -170.0000	-1.5782E-4	-1.6127E-4	-1.5522E-4	-1.5729E-4	-1.5751E-4	   -9.9973	   21.8001	   10.5014	    0.0000	
 -180.0000	-1.7856E-4	-1.7893E-4	-1.7755E-4	-1.7868E-4	-1.7908E-4	   -9.9973	   21.8001	   10.5014	    0.0000	
 -190.0000	-2.0686E-4	-2.0829E-4	-2.0226E-4	-2.0881E-4	-2.0808E-4	   -9.9973	   21.8001	   10.5014	    0.0000	
 -200.0000	-2.3684E-4	-2.3104E-4	-2.4255E-4	-2.3445E-4	-2.3930E-4	   -9.9973	   21.8001	   10.5014	    0.0000	
 -210.0000	-2.7551E-4	-2.7066E-4	-2.8203E-4	-2.6803E-4	-2.8133E-4	   -9.9973	   21.8001	   10.5014	    0.0000	
 -220.0000	-3.2655E-4	-3.2367E-4	-3.2356E-4	-3.3353E-4	-3.2543E-4	   -9.9973	   21.8001	   10.5014	    0.0000	
 -230.0000	-3.8999E-4	-3.8348E-4	-3.9439E-4	-3.9811E-4	-3.8398E-4	   -9.9973	   21.8001	   10.5014	    0.0000	
 -240.0000	-4.5513E-4	-4.5521E-4	-4.5534E-4	-4.5145E-4	-4.5854E-4	   -9.9973	   21.8001	   10.5014	    0.0000	
 -250.0000	-5.3212E-4	-5.3281E-4	-5.2874E-4	-5.3283E-4	-5.3412E-4	   -9.9973	   21.8001	   10.5014	    0.0000	
 -260.0000	-6.1257E-4	-6.0012E-4	-6.2101E-4	-5.9404E-4	-6.3512E-4	   -9.9973	   21.8001	   10.5014	    0.0000	
 -270.0000	-7.0927E-4	-7.0204E-4	-7.0430E-4	-6.9562E-4	-7.3514E-4	   -9.9973	   21.8001	   10.5014	    0.0000	
 -280.0000	-8.5806E-4	-8.5421E-4	-8.5916E-4	-8.5525E-4	-8.6360E-4	   -9.9973	   21.8001	   10.5014	    0.0000	
 -290.0000	-9.9998E-4	-9.9997E-4	-9.9995E-4	-9.9997E-4	-1.0000E-3	   -9.9973	   21.8001	   10.5014	    0.0000	
 -300.0000	-9.9996E-4	-9.9997E-4	-9.9997E-4	-9.9996E-4	-9.9996E-4	   -9.9973	   21.8001	   10.5014	    0.0000	
 -310.0000	-9.9997E-4	-9.9992E-4	-1.0000E-3	-9.9999E-4	-9.9997E-4	   -9.9973	   21.8001	   10.5014	    0.0000	
 -320.0000	-9.9995E-4	-9.9993E-4	-9.9992E-4	-9.9993E-4	-1.0000E-3	   -9.9973	   21.8001	   10.5014	    0.0000	
 -330.0000	-9.9999E-4	-1.0001E-3	-9.9996E-4	-9.9999E-4	-9.9994E-4	   -9.9973	   21.8001	   10.5014	    0.0000	
 -340.0000	-1.0000E-3	-1.0000E-3	-1.0001E-3	-1.0000E-3	-9.9995E-4	   -9.9973	   21.8001	   10.5014	    0.0000	
 -350.0000	-1.0000E-3	-1.0000E-3	-1.0000E-3	-9.9997E-4	-1.0000E-3	   -9.9973	   21.8001	   10.5014	    0.0000	
 -360.0000	-1.0000E-3	-1.0000E-3	-1.0000E-3	-9.9998E-4	-9.9998E-4	   -9.9973	   21.8001	   10.5014	    0.0000	
 -370.0000	-9.9998E-4	-1.0000E-3	-9.9997E-4	-1.0000E-3	-9.9994E-4	   -9.9973	   21.8001	   10.5014	    0.0000	
 -380.0000	-1.0000E-3	-9.9995E-4	-1.0000E-3	-1.0001E-3	-1.0001E-3	   -9.9973	   21.8001	   10.5014	    0.0000	
 -390.0000	-9.9998E-4	-9.9995E-4	-9.9994E-4	-1.0000E-3	-1.0000E-3	   -9.9973	   21.8001	   10.5014	    0.0000	
 -400.0000	-1.0000E-3	-1.0000E-3	-9.9999E-4	-9.9995E-4	-1.0000E-3	   -9.9973	   21.8001	   10.5014	    0.0000	
 -410.0000	-1.0000E-3	-1.0000E-3	-1.0000E-3	-1.0001E-3	-9.9996E-4	   -9.9973	   21.8001	   10.5014	    0.0000	
 -420.0000	-9.9997E-4	-9.9997E-4	-9.9994E-4	-1.0001E-3	-9.9992E-4	   -9.9973	   21.8001	   10.5014	    0.0000	
 -430.0000	-9.9999E-4	-9.9997E-4	-9.9998E-4	-1.0001E-3	-9.9994E-4	   -9.9973	   21.8001	   10.5014	    0.0000	
 -440.0000	-9.9997E-4	-9.9995E-4	-1.0000E-3	-9.9993E-4	-9.9999E-4	   -9.9973	   21.8001	   10.5014	    0.0000	
 -450.0000	-9.9999E-4	-1.0000E-3	-1.0000E-3	-9.9994E-4	-9.9996E-4	   -9.9973	   21.8001	   10.5014	    0.0000	
 -460.0000	-1.0000E-3	-9.9996E-4	-9.9995E-4	-1.0000E-3	-1.0001E-3	   -9.9973	   21.8001	   10.5014	    0.0000	
 -470.0000	-9.9996E-4	-9.9996E-4	-9.9996E-4	-9.9990E-4	-1.0000E-3	   -9.9973	   21.8001	   10.5014	    0.0000	
 -480.0000	-1.0000E-3	-1.0000E-3	-9.9996E-4	-1.0001E-3	-9.9993E-4	   -9.9973	   21.8001	   10.5014	    0.0000	
 -490.0000	-9.9998E-4	-1.0000E-3	-1.0000E-3	-9.9995E-4	-9.9996E-4	   -9.9973	   21.8001	   10.5014	    0.0000	
