GCD Test
Bias: 5000.000000
CV_34343_036_PSS_HM_XX_DIODEHALFPSTOP
Date/Time: 7/15/2021 1:26:38 PM
Sensor Name: DIODEHALFPSTOP
Type: P
Annealing Status: Not Irradiated
Environment: 20C
Tester: Andrew Kent

Time Delay per Ramp Step (s): 0.500

CV Time Delay per Measurement (s) :0.500

AC Voltage (V): 0.500

Current Number of measurements per voltage: 1.000

IV Time Delay per Measurement (s) :0.000


BiasVoltage	LCR_Cp_freqNaN	LCR_Rp_freqNaN	Temperature	Air_Temp	Humidity	Dewpoint	
   -5.0000	2.080E-11	1.425E+9	   20.1068	   20.7626	   27.6050	    1.4067	
  -10.0000	1.625E-11	1.526E+9	   20.0399	   20.7626	   27.5977	    1.4031	
  -15.0000	1.415E-11	1.633E+9	   19.9653	   20.7441	   27.6022	    1.3894	
  -20.0000	1.287E-11	1.858E+9	   19.9164	   20.7437	   27.5990	    1.3875	
  -25.0000	1.198E-11	1.747E+9	   19.8777	   20.7495	   27.5987	    1.3923	
  -30.0000	1.130E-11	1.641E+9	   19.8597	   20.7442	   27.6189	    1.3980	
  -35.0000	1.080E-11	1.824E+9	   19.8623	   20.7460	   27.6063	    1.3932	
  -40.0000	1.043E-11	1.863E+9	   19.8906	   20.7397	   27.6123	    1.3908	
  -45.0000	1.012E-11	1.751E+9	   19.9344	   20.7458	   27.6107	    1.3952	
  -50.0000	9.850E-12	1.896E+9	   19.9936	   20.7378	   27.6126	    1.3893	
  -55.0000	9.619E-12	2.001E+9	   20.0502	   20.7488	   27.6059	    1.3954	
  -60.0000	9.423E-12	1.770E+9	   20.1017	   20.7307	   27.6082	    1.3810	
  -65.0000	9.242E-12	1.704E+9	   20.1454	   20.7522	   27.6006	    1.3956	
  -70.0000	9.088E-12	1.666E+9	   20.1686	   20.7499	   27.5936	    1.3901	
  -75.0000	8.942E-12	1.758E+9	   20.1712	   20.7422	   27.5984	    1.3859	
  -80.0000	8.813E-12	1.956E+9	   20.1531	   20.7494	   27.5848	    1.3852	
  -85.0000	8.694E-12	1.912E+9	   20.1171	   20.7448	   27.5787	    1.3782	
  -90.0000	8.585E-12	1.895E+9	   20.0759	   20.7441	   27.5775	    1.3770	
  -95.0000	8.482E-12	2.021E+9	   20.0322	   20.7522	   27.5693	    1.3798	
 -100.0000	8.387E-12	1.911E+9	   19.9833	   20.7483	   27.5724	    1.3780	
 -105.0000	8.293E-12	1.842E+9	   19.9472	   20.7501	   27.5591	    1.3729	
 -110.0000	8.197E-12	1.710E+9	   19.9138	   20.7503	   27.5772	    1.3822	
 -115.0000	8.118E-12	1.698E+9	   19.8958	   20.7468	   27.5772	    1.3791	
 -120.0000	8.040E-12	1.813E+9	   19.8958	   20.7484	   27.5661	    1.3749	
 -125.0000	7.976E-12	1.994E+9	   19.9112	   20.7426	   27.5702	    1.3721	
 -130.0000	7.909E-12	1.735E+9	   19.9395	   20.7474	   27.5743	    1.3782	
 -135.0000	7.851E-12	2.055E+9	   19.9807	   20.7395	   27.5712	    1.3699	
 -140.0000	7.790E-12	1.875E+9	   20.0245	   20.7360	   27.5772	    1.3699	
 -145.0000	7.739E-12	1.944E+9	   20.0682	   20.7362	   27.5651	    1.3640	
 -150.0000	7.697E-12	1.990E+9	   20.1042	   20.7457	   27.5670	    1.3731	
 -155.0000	7.642E-12	1.907E+9	   20.1377	   20.7503	   27.5674	    1.3772	
 -160.0000	7.603E-12	2.145E+9	   20.1429	   20.7433	   27.5633	    1.3691	
 -165.0000	7.560E-12	1.993E+9	   20.1300	   20.7341	   27.5569	    1.3581	
 -170.0000	7.521E-12	1.977E+9	   20.1300	   20.7341	   27.5569	    1.3581	
 -175.0000	7.474E-12	1.880E+9	   20.0579	   20.7348	   27.5588	    1.3596	
 -180.0000	7.439E-12	2.076E+9	   20.0116	   20.7392	   27.5462	    1.3570	
 -185.0000	7.402E-12	1.897E+9	   19.9627	   20.7390	   27.5487	    1.3581	
 -190.0000	7.359E-12	1.984E+9	   19.9164	   20.7386	   27.5392	    1.3529	
 -195.0000	7.325E-12	2.146E+9	   19.8855	   20.7414	   27.5424	    1.3569	
 -200.0000	7.291E-12	1.764E+9	   19.8700	   20.7361	   27.5329	    1.3476	
 -205.0000	7.261E-12	2.188E+9	   19.8829	   20.7276	   27.5474	    1.3477	
 -210.0000	7.226E-12	2.008E+9	   19.9086	   20.7380	   27.5440	    1.3548	
 -215.0000	7.200E-12	2.125E+9	   19.9498	   20.7288	   27.5436	    1.3468	
 -220.0000	7.163E-12	1.907E+9	   19.9987	   20.7312	   27.5405	    1.3472	
 -225.0000	7.133E-12	2.020E+9	   20.0476	   20.7290	   27.5380	    1.3441	
 -230.0000	7.106E-12	1.977E+9	   20.0939	   20.7277	   27.5300	    1.3390	
 -235.0000	7.078E-12	1.893E+9	   20.1274	   20.7302	   27.5389	    1.3456	
 -240.0000	7.050E-12	1.946E+9	   20.1531	   20.7284	   27.5354	    1.3423	
 -245.0000	7.042E-12	2.010E+9	   20.1531	   20.7280	   27.5281	    1.3383	
 -250.0000	7.023E-12	1.969E+9	   20.1351	   20.7361	   27.5187	    1.3405	
 -255.0000	7.018E-12	1.994E+9	   20.1042	   20.7313	   27.5234	    1.3387	
 -260.0000	7.005E-12	2.031E+9	   20.0399	   20.7362	   27.5145	    1.3384	
 -265.0000	6.997E-12	1.890E+9	   20.0399	   20.7362	   27.5145	    1.3384	
 -270.0000	6.990E-12	1.798E+9	   19.9164	   20.7315	   27.4991	    1.3266	
 -275.0000	6.979E-12	1.828E+9	   19.8829	   20.7291	   27.4962	    1.3231	
 -280.0000	6.965E-12	1.765E+9	   19.8649	   20.7304	   27.4956	    1.3239	
 -285.0000	6.950E-12	1.669E+9	   19.8777	   20.7279	   27.5041	    1.3260	
 -290.0000	6.942E-12	1.899E+9	   19.9061	   20.7274	   27.5054	    1.3263	
 -295.0000	6.930E-12	2.008E+9	   19.9550	   20.7328	   27.5187	    1.3376	
 -300.0000	6.928E-12	2.219E+9	   20.0064	   20.7280	   27.5009	    1.3245	
 -305.0000	6.921E-12	1.978E+9	   20.0682	   20.7259	   27.4892	    1.3168	
 -310.0000	6.921E-12	2.009E+9	   20.1223	   20.7410	   27.4848	    1.3275	
 -315.0000	6.920E-12	2.352E+9	   20.1686	   20.7406	   27.4877	    1.3286	
 -320.0000	6.918E-12	2.054E+9	   20.1840	   20.7406	   27.4820	    1.3257	
 -325.0000	6.915E-12	2.081E+9	   20.1634	   20.7458	   27.4712	    1.3248	
 -330.0000	6.910E-12	2.060E+9	   20.1300	   20.7434	   27.4687	    1.3214	
 -335.0000	6.916E-12	2.149E+9	   20.0631	   20.7297	   27.4614	    1.3060	
 -340.0000	6.909E-12	2.102E+9	   20.0631	   20.7297	   27.4614	    1.3060	
 -345.0000	6.906E-12	1.965E+9	   19.9936	   20.7458	   27.4570	    1.3175	
 -350.0000	6.902E-12	2.011E+9	   19.9472	   20.7308	   27.4541	    1.3032	
 -355.0000	6.903E-12	2.220E+9	   19.9086	   20.7353	   27.4453	    1.3026	
 -360.0000	6.901E-12	2.150E+9	   19.8855	   20.7313	   27.4447	    1.2988	
 -365.0000	6.910E-12	2.197E+9	   19.8958	   20.7346	   27.4453	    1.3020	
 -370.0000	6.903E-12	2.377E+9	   19.9164	   20.7383	   27.4453	    1.3052	
 -375.0000	6.899E-12	2.059E+9	   20.0142	   20.7343	   27.4500	    1.3042	
 -380.0000	6.907E-12	2.240E+9	   20.0682	   20.7377	   27.4374	    1.3007	
 -385.0000	6.907E-12	2.381E+9	   20.1197	   20.7295	   27.4415	    1.2958	
 -390.0000	6.902E-12	2.404E+9	   20.1506	   20.7377	   27.4405	    1.3023	
 -395.0000	6.893E-12	2.253E+9	   20.1634	   20.7431	   27.4576	    1.3156	
 -400.0000	6.898E-12	2.163E+9	   20.1557	   20.7488	   27.4557	    1.3194	
 -410.0000	6.891E-12	2.335E+9	   20.1223	   20.7431	   27.4693	    1.3215	
 -420.0000	6.896E-12	2.434E+9	   20.0682	   20.7431	   27.4706	    1.3221	
 -430.0000	6.891E-12	2.304E+9	   20.0270	   20.7393	   27.4700	    1.3185	
 -440.0000	6.895E-12	2.526E+9	   19.9781	   20.7355	   27.4617	    1.3112	
 -450.0000	6.897E-12	2.402E+9	   19.9395	   20.7426	   27.4598	    1.3162	
 -460.0000	6.895E-12	2.148E+9	   19.9138	   20.7325	   27.4519	    1.3036	
 -470.0000	6.896E-12	2.293E+9	   19.9009	   20.7325	   27.4456	    1.3003	
 -480.0000	6.894E-12	2.404E+9	   19.9061	   20.7375	   27.4418	    1.3027	
 -490.0000	6.890E-12	2.140E+9	   19.9266	   20.7356	   27.4330	    1.2966	
 -500.0000	6.885E-12	2.120E+9	   19.9266	   20.7356	   27.4330	    1.2966	
 -510.0000	6.885E-12	2.411E+9	   20.0167	   20.7438	   27.4342	    1.3043	
 -520.0000	6.890E-12	2.429E+9	   20.0656	   20.7428	   27.4260	    1.2993	
 -530.0000	6.893E-12	2.400E+9	   20.1171	   20.7409	   27.4238	    1.2965	
 -540.0000	6.888E-12	2.215E+9	   20.1403	   20.7442	   27.4051	    1.2899	
 -550.0000	6.885E-12	2.089E+9	   20.1403	   20.7442	   27.4051	    1.2899	
 -560.0000	6.888E-12	2.081E+9	   20.1454	   20.7357	   27.4045	    1.2823	
 -570.0000	6.886E-12	2.146E+9	   20.0914	   20.7416	   27.3928	    1.2814	
 -580.0000	6.888E-12	2.242E+9	   20.0399	   20.7307	   27.3843	    1.2677	
 -590.0000	6.888E-12	2.694E+9	   20.0399	   20.7307	   27.3843	    1.2677	
 -600.0000	6.891E-12	2.435E+9	   19.9292	   20.7290	   27.3874	    1.2679	
